0.0167,1.7174,0,1.5887,2.0588
0.0156,1.7194,0,1.5892,2.0574
0.02,1.7168,0,1.5897,2.0561
0.0167,1.7192,0,1.5902,2.0548
0.02,1.72,0,1.5907,2.0535
0.0171,1.7236,0,1.5912,2.0522
0.0163,1.7638,0,1.5919,2.051
0.0199,1.7935,0,1.5927,2.05
0.0168,1.7969,0,1.5935,2.049
0.0168,1.7687,0,1.5942,2.0479
0.0198,1.7431,0,1.5948,2.0467
0.0166,1.7182,0,1.5952,2.0454
0.0199,1.7001,0,1.5957,2.0441
0.0167,1.6355,0,1.5958,2.0425
0.018,1.6823,0,1.5962,2.0411
0.0189,3.086,1,1.602,2.1068
0.0165,2.6448,0,1.6061,2.1201
0.0167,1.9308,0,1.6062,2.1194
0.0206,1.5657,0,1.5982,2.1172
0.0169,1.4473,0,1.5902,2.1146
0.0191,1.4404,0,1.5842,2.112
0.0167,1.4805,0,1.5808,2.1095
0.0167,1.5199,0,1.5791,2.1072
0.02,1.5754,0,1.5791,2.1051
0.0166,1.6004,0,1.5792,2.1031
0.0167,1.6315,0,1.5794,2.1013
0.0201,1.6745,0,1.5798,2.0996
0.0167,1.7149,0,1.5803,2.0981
0.02,1.7707,0,1.5811,2.0968
0.0174,1.8512,0,1.5821,2.0958
0.0158,1.8585,0,1.5832,2.0949
0.02,1.7795,0,1.584,2.0937
0.0167,1.7075,0,1.5845,2.0921
0.0176,1.6673,0,1.5848,2.0905
0.0191,1.6538,0,1.585,2.0888
0.0167,1.6656,0,1.5854,2.0871
0.02,1.6859,0,1.5858,2.0855
0.0166,1.6991,0,1.5862,2.084
0.0167,1.7133,0,1.5867,2.0826
0.0201,1.7115,0,1.5872,2.0811
0.0167,1.7012,0,1.5876,2.0796
0.0167,1.6977,0,1.5881,2.0781
0.0207,1.6998,0,1.5885,2.0766
0.017,1.707,0,1.589,2.0752
0.0188,1.7127,0,1.5895,2.0738
0.0167,1.7179,0,1.59,2.0724
0.0167,1.7326,0,1.5905,2.071
0.02,1.731,0,1.5911,2.0697
0.0166,1.7402,0,1.5917,2.0684
0.0167,1.7336,0,1.5922,2.0671
0.02,1.7313,0,1.5928,2.0658
0.0166,1.7273,0,1.5933,2.0645
0.02,1.726,0,1.5938,2.0631
0.0172,1.7516,0,1.5944,2.0619
0.0161,1.7862,0,1.5952,2.0608
0.02,1.8206,0,1.5961,2.0599
0.0166,1.8027,0,1.5969,2.0589
0.0181,1.7576,0,1.5975,2.0577
0.0187,1.7231,0,1.598,2.0564
0.0166,1.7018,0,1.5984,2.055
0.0199,1.6947,0,1.5988,2.0536
0.0179,1.5457,0,1.5941,2.0516
0.0155,2.1803,1,1.5964,2.0678
0.02,3.138,0,1.6024,2.1267
0.0167,2.3233,0,1.6052,2.1275
0.0167,1.7454,0,1.6005,2.126
0.0207,1.4844,0,1.5914,2.1235
0.0173,1.4365,0,1.5845,2.1208
0.0188,1.44,0,1.5789,2.1181
0.0166,1.4803,0,1.5757,2.1156
0.0168,1.5394,0,1.5753,2.1133
0.0202,1.5819,0,1.5753,2.1112
0.0164,1.6254,0,1.5755,2.1093
0.0167,1.6496,0,1.5758,2.1075
0.02,1.6871,0,1.5763,2.1059
0.0166,1.7451,0,1.5769,2.1045
0.02,1.8199,0,1.5779,2.1034
0.0167,1.8872,0,1.5791,2.1025
0.0167,1.864,0,1.5802,2.1016
0.02,1.7781,0,1.581,2.1003
0.0166,1.6908,0,1.5814,2.0987
0.02,1.6551,0,1.5817,2.097
0.0172,1.6498,0,1.582,2.0952
0.0161,1.6578,0,1.5823,2.0935
0.02,1.6637,0,1.5826,2.0918
0.0167,1.6755,0,1.583,2.0902
0.0178,1.6957,0,1.5834,2.0886
0.0189,1.7057,0,1.5839,2.0871
0.0166,1.696,0,1.5843,2.0856
0.02,1.696,0,1.5848,2.0841
0.0166,1.7123,0,1.5853,2.0826
0.0167,1.7177,0,1.5858,2.0812
0.02,1.726,0,1.5863,2.0798
0.0166,1.7321,0,1.5869,2.0784
0.0167,1.7406,0,1.5875,2.0771
0.0207,1.7369,0,1.5881,2.0758
0.0171,1.739,0,1.5887,2.0744
0.0157,1.7299,0,1.5892,2.0731
0.02,1.7203,0,1.5897,2.0717
0.0167,1.7237,0,1.5903,2.0703
0.0199,1.715,0,1.5908,2.0689
0.0166,1.7154,0,1.5913,2.0676
0.0167,1.7415,0,1.5918,2.0663
0.0201,1.7829,0,1.5926,2.0652
0.0167,1.8064,0,1.5934,2.0642
0.0165,1.8012,0,1.5942,2.0631
0.0201,1.7539,0,1.5949,2.0619
0.0166,1.7251,0,1.5954,2.0606
0.0201,1.7024,0,1.5958,2.0592
0.0167,1.6916,0,1.5962,2.0577
0.0179,1.6326,0,1.5963,2.0561
0.0187,1.6879,0,1.5967,2.0546
0.0166,3.127,1,1.6027,2.1221
0.02,2.6683,0,1.6069,2.1354
0.0167,1.9223,0,1.6061,2.1346
0.0166,1.5596,0,1.5978,2.1323
0.0201,1.429,0,1.5889,2.1296
0.0167,1.4213,0,1.5822,2.1268
0.0168,1.4513,0,1.5776,2.1241
0.0199,1.5101,0,1.576,2.1217
0.0182,1.5689,0,1.576,2.1196
0.0185,1.608,0,1.5761,2.1175
0.0167,1.6439,0,1.5764,2.1157
0.0166,1.6819,0,1.5768,2.114
0.0203,1.7336,0,1.5774,2.1125
0.0171,1.79,0,1.5782,2.1112
0.0159,1.8609,0,1.5793,2.1103
0.0201,1.8715,0,1.5805,2.1093
0.0166,1.8099,0,1.5814,2.1081
0.0203,1.7372,0,1.582,2.1067
0.0164,1.6804,0,1.5824,2.105
0.0167,1.6647,0,1.5827,2.1033
0.02,1.6595,0,1.583,2.1015
0.0166,1.6675,0,1.5833,2.0998
0.0182,1.6865,0,1.5837,2.0982
0.0185,1.6961,0,1.5842,2.0966
0.0166,1.7091,0,1.5847,2.0951
0.02,1.7069,0,1.5851,2.0936
0.0167,1.7094,0,1.5856,2.0921
0.0166,1.7135,0,1.5861,2.0906
0.02,1.7149,0,1.5866,2.0891
0.0168,1.7251,0,1.5872,2.0877
0.0166,1.735,0,1.5878,2.0863
0.0201,1.7351,0,1.5883,2.085
0.0166,1.7253,0,1.5889,2.0835
0.02,1.7221,0,1.5894,2.0821
0.0167,1.721,0,1.5899,2.0807
0.0167,1.7174,0,1.5904,2.0793
0.0204,1.7227,0,1.5909,2.0779
0.0171,1.7309,0,1.5915,2.0765
0.0157,1.7435,0,1.5921,2.0752
0.02,1.7509,0,1.5927,2.0739
0.0167,1.7697,0,1.5934,2.0728
0.02,1.7597,0,1.594,2.0715
0.0166,1.7824,0,1.5948,2.0704
0.0167,1.803,0,1.5956,2.0693
0.0203,1.7805,0,1.5963,2.0682
0.0177,1.76,0,1.597,2.067
0.0153,1.7206,0,1.5974,2.0656
0.0201,1.7205,0,1.5979,2.0643
0.0167,1.7172,0,1.5984,2.0629
0.0199,1.6086,0,1.5969,2.0611
0.0167,1.9243,1,1.5982,2.0614
0.0168,3.2384,0,1.6046,2.1307
0.02,2.5066,0,1.6081,2.1325
0.0166,1.8228,0,1.6045,2.1313
0.0167,1.5004,0,1.5947,2.1288
0.0201,1.4223,0,1.5866,2.1261
0.0165,1.4386,0,1.5811,2.1234
0.02,1.4929,0,1.5786,2.1209
0.0166,1.5501,0,1.5784,2.1187
0.0167,1.605,0,1.5786,2.1166
0.02,1.6233,0,1.5787,2.1147
0.0168,1.6327,0,1.5789,2.1128
0.0165,1.6684,0,1.5793,2.1111
0.0201,1.7063,0,1.5798,2.1095
0.0167,1.7744,0,1.5805,2.1082
0.02,1.8525,0,1.5816,2.1072
0.0166,1.8752,0,1.5828,2.1063
0.0166,1.8242,0,1.5837,2.1052
0.02,1.7517,0,1.5844,2.1038
0.0167,1.7015,0,1.5848,2.1022
0.0166,1.6718,0,1.5852,2.1005
0.0201,1.6586,0,1.5855,2.0988
0.0166,1.6607,0,1.5858,2.0971
0.0201,1.6777,0,1.5861,2.0954
0.0167,1.6899,0,1.5865,2.0938
0.0166,1.7005,0,1.587,2.0923
0.02,1.7203,0,1.5875,2.0908
0.0167,1.7236,0,1.588,2.0894
0.0167,1.728,0,1.5886,2.088
0.0201,1.723,0,1.5891,2.0865
0.0167,1.7115,0,1.5896,2.0851
0.0201,1.7012,0,1.59,2.0836
0.0164,1.6977,0,1.5904,2.082
0.0167,1.6998,0,1.5909,2.0805
0.0205,1.7038,0,1.5913,2.0791
0.0161,1.7214,0,1.5918,2.0777
0.0167,1.7338,0,1.5924,2.0763
0.0201,1.7477,0,1.593,2.075
0.0167,1.7588,0,1.5936,2.0738
0.02,1.7463,0,1.5942,2.0725
0.0167,1.7421,0,1.5948,2.0712
0.0167,1.7276,0,1.5953,2.0699
0.02,1.7196,0,1.5958,2.0685
0.0178,1.7462,0,1.5964,2.0672
0.0154,1.7681,0,1.5971,2.066
0.0201,1.808,0,1.5979,2.065
0.0167,1.7822,0,1.5986,2.0639
0.02,1.7671,0,1.5993,2.0628
0.0166,1.7425,0,1.5999,2.0615
0.0166,1.7213,0,1.6003,2.0602
0.0201,1.7044,0,1.6007,2.0588
0.0168,1.5326,0,1.595,2.0567
0.0183,2.5246,1,1.5987,2.0926
0.0191,3.0312,0,1.6043,2.1383
0.0172,2.1867,0,1.6066,2.1385
0.0186,1.6673,0,1.5998,2.1367
0.0167,1.4616,0,1.5908,2.134
0.0167,1.4419,0,1.5846,2.1313
0.0201,1.4582,0,1.5799,2.1287
0.0166,1.4896,0,1.5769,2.1261
0.0167,1.5425,0,1.5765,2.1239
0.02,1.5764,0,1.5765,2.1217
0.0166,1.617,0,1.5767,2.1197
0.02,1.6436,0,1.5769,2.1179
0.0167,1.6818,0,1.5773,2.1162
0.0167,1.7434,0,1.578,2.1147
0.0201,1.8258,0,1.579,2.1136
0.0166,1.8989,0,1.5802,2.1127
0.0168,1.8712,0,1.5814,2.1118
0.0204,1.7837,0,1.5821,2.1105
0.0171,1.7024,0,1.5826,2.1089
0.019,1.659,0,1.5829,2.1071
0.0168,1.6348,0,1.5831,2.1053
0.0166,1.643,0,1.5834,2.1035
0.02,1.6751,0,1.5837,2.1018
0.0167,1.6923,0,1.5841,2.1002
0.0199,1.7078,0,1.5846,2.0986
0.0167,1.7195,0,1.5852,2.0971
0.0167,1.7136,0,1.5857,2.0956
0.0204,1.7051,0,1.5861,2.0941
0.0163,1.7056,0,1.5866,2.0926
0.0166,1.7057,0,1.5871,2.0911
0.0204,1.7123,0,1.5876,2.0896
0.0172,1.721,0,1.5881,2.0881
0.019,1.7304,0,1.5886,2.0867
0.0167,1.74,0,1.5892,2.0854
0.0167,1.7498,0,1.5899,2.0841
0.02,1.7367,0,1.5904,2.0827
0.0166,1.7389,0,1.591,2.0813
0.0166,1.7233,0,1.5915,2.0799
0.0202,1.7149,0,1.592,2.0785
0.0167,1.7153,0,1.5925,2.0771
0.0165,1.7155,0,1.593,2.0757
0.02,1.7253,0,1.5935,2.0743
0.0166,1.7449,0,1.5941,2.073
0.02,1.7807,0,1.5948,2.0719
0.0167,1.7959,0,1.5956,2.0708
0.0168,1.8108,0,1.5965,2.0698
0.02,1.7636,0,1.5971,2.0686
0.0166,1.7381,0,1.5977,2.0673
0.02,1.71,0,1.5981,2.0659
0.0167,1.6974,0,1.5985,2.0644
0.0166,1.6867,0,1.5988,2.0629
0.02,1.5658,0,1.5954,2.061
0.0167,2.8908,1,1.6005,2.1169
0.0166,2.8698,0,1.6055,2.1461
0.0201,2.0547,0,1.6072,2.1457
0.0167,1.594,0,1.5986,2.1435
0.0199,1.4241,0,1.5887,2.1407
0.0172,1.4001,0,1.5809,2.1378
0.0173,1.441,0,1.5762,2.1351
0.0189,1.4904,0,1.5737,2.1326
0.0166,1.5623,0,1.5736,2.1303
0.0167,1.6156,0,1.5738,2.1283
0.0201,1.6529,0,1.5741,2.1264
0.0167,1.6719,0,1.5745,2.1246
0.02,1.701,0,1.575,2.123
0.0167,1.7368,0,1.5756,2.1215
0.0179,1.8106,0,1.5765,2.1203
0.0191,1.8743,0,1.5777,2.1193
0.0175,1.8401,0,1.5787,2.1182
0.0159,1.7603,0,1.5794,2.1168
0.0196,1.6914,0,1.5799,2.1151
0.0166,1.6554,0,1.5802,2.1133
0.02,1.6499,0,1.5804,2.1115
0.0167,1.6643,0,1.5808,2.1097
0.0166,1.6757,0,1.5812,2.108
0.02,1.6697,0,1.5815,2.1063
0.0167,1.6905,0,1.5819,2.1047
0.0168,1.6942,0,1.5824,2.1031
0.0199,1.6921,0,1.5828,2.1015
0.0167,1.7045,0,1.5833,2.0999
0.02,1.7053,0,1.5838,2.0984
0.0167,1.7187,0,1.5843,2.0969
0.0179,1.7198,0,1.5848,2.0954
0.0192,1.7235,0,1.5854,2.0939
0.0167,1.7149,0,1.5859,2.0925
0.0163,1.7153,0,1.5864,2.091
0.02,1.7155,0,1.5869,2.0895
0.0167,1.7155,0,1.5874,2.088
0.02,1.7286,0,1.5879,2.0866
0.0166,1.7362,0,1.5885,2.0853
0.0167,1.7452,0,1.5891,2.0839
0.02,1.745,0,1.5897,2.0826
0.0167,1.7449,0,1.5904,2.0813
0.0167,1.7318,0,1.5909,2.0799
0.0201,1.7308,0,1.5915,2.0785
0.0166,1.7565,0,1.5921,2.0773
0.0199,1.752,0,1.5927,2.076
0.0173,1.7701,0,1.5934,2.0748
0.0166,1.7533,0,1.5941,2.0735
0.0195,1.7444,0,1.5946,2.0722
0.0167,1.7382,0,1.5952,2.0709
0.0167,1.7264,0,1.5957,2.0696
0.0201,1.7094,0,1.5962,2.0682
0.0166,1.5506,0,1.5916,2.0661
0.0201,2.7489,1,1.5961,2.1141
0.0166,2.93,0,1.6013,2.1492
0.0167,2.0943,0,1.6033,2.149
0.02,1.6039,0,1.5946,2.1469
0.0166,1.4274,0,1.585,2.1441
0.0167,1.4207,0,1.5784,2.1412
0.02,1.4576,0,1.5743,2.1386
0.0167,1.5123,0,1.5729,2.1361
0.02,1.5631,0,1.5728,2.1339
0.0167,1.5963,0,1.5729,2.1317
0.0166,1.6269,0,1.5731,2.1298
0.0202,1.6436,0,1.5734,2.1279
0.0166,1.6883,0,1.5739,2.1261
0.0199,1.7423,0,1.5745,2.1246
0.0167,1.8287,0,1.5755,2.1235
0.0167,1.8966,0,1.5768,2.1226
0.02,1.8802,0,1.578,2.1216
0.0166,1.7965,0,1.5788,2.1204
0.0178,1.7165,0,1.5794,2.1188
0.0193,1.6605,0,1.5797,2.117
0.0164,1.6385,0,1.5799,2.1151
0.02,1.641,0,1.5801,2.1132
0.0165,1.6549,0,1.5804,2.1114
0.0167,1.6758,0,1.5808,2.1097
0.02,1.699,0,1.5813,2.1081
0.0167,1.7133,0,1.5818,2.1066
0.0167,1.7213,0,1.5823,2.1051
0.02,1.724,0,1.5829,2.1036
0.0167,1.7216,0,1.5834,2.1021
0.02,1.711,0,1.5839,2.1005
0.0167,1.7043,0,1.5844,2.099
0.0166,1.7085,0,1.5849,2.0975
0.0201,1.7067,0,1.5854,2.0959
0.0165,1.7256,0,1.5859,2.0945
0.0167,1.7385,0,1.5865,2.0931
0.02,1.746,0,1.5872,2.0917
0.0167,1.7452,0,1.5878,2.0904
0.0199,1.7417,0,1.5884,2.089
0.0168,1.7373,0,1.589,2.0876
0.0165,1.7293,0,1.5895,2.0862
0.0201,1.7234,0,1.59,2.0848
0.0165,1.7149,0,1.5905,2.0833
0.0167,1.7284,0,1.5911,2.0819
0.02,1.7654,0,1.5917,2.0807
0.0166,1.781,0,1.5925,2.0795
0.02,1.8091,0,1.5933,2.0785
0.0167,1.7728,0,1.594,2.0773
0.0168,1.7477,0,1.5946,2.076
0.02,1.7132,0,1.5951,2.0745
0.0165,1.692,0,1.5955,2.073
0.0166,1.6718,0,1.5958,2.0715
0.0207,1.5218,0,1.5902,2.0693
0.0161,2.7425,1,1.5948,2.1173
0.02,2.9441,0,1.6,2.1532
0.0167,2.1088,0,1.602,2.1531
0.0167,1.6185,0,1.594,2.151
0.02,1.4356,0,1.5846,2.1482
0.0168,1.4039,0,1.577,2.1452
0.0166,1.4422,0,1.5723,2.1425
0.0202,1.4843,0,1.5696,2.1399
0.0166,1.544,0,1.5695,2.1376
0.0199,1.5867,0,1.5696,2.1354
0.0166,1.6335,0,1.5699,2.1334
0.0166,1.6621,0,1.5702,2.1316
0.02,1.7075,0,1.5708,2.1299
0.0166,1.752,0,1.5715,2.1285
0.0167,1.8157,0,1.5724,2.1272
0.0201,1.8825,0,1.5736,2.1263
0.0167,1.8461,0,1.5747,2.1252
0.02,1.7526,0,1.5754,2.1237
0.0166,1.679,0,1.5758,2.122
0.0167,1.648,0,1.5761,2.1201
0.02,1.667,0,1.5764,2.1183
0.0167,1.6798,0,1.5769,2.1166
0.02,1.6939,0,1.5773,2.1149
0.0167,1.7018,0,1.5778,2.1133
0.0167,1.7044,0,1.5783,2.1117
0.0201,1.6988,0,1.5788,2.1101
0.0171,1.7002,0,1.5792,2.1085
0.0161,1.7039,0,1.5797,2.1069
0.02,1.7117,0,1.5803,2.1054
0.0166,1.7208,0,1.5808,2.1039
0.0167,1.7303,0,1.5814,2.1024
0.02,1.7335,0,1.582,2.1009
0.0166,1.7443,0,1.5826,2.0995
0.0201,1.7317,0,1.5832,2.0981
0.0167,1.7242,0,1.5838,2.0966
0.0165,1.7282,0,1.5843,2.0952
0.02,1.7263,0,1.5849,2.0937
0.0167,1.7289,0,1.5854,2.0923
0.0166,1.7395,0,1.5861,2.0909
0.02,1.7366,0,1.5866,2.0895
0.0166,1.7421,0,1.5873,2.0882
0.02,1.7505,0,1.5879,2.0869
0.0166,1.763,0,1.5886,2.0856
0.0168,1.7802,0,1.5893,2.0844
0.0201,1.8088,0,1.5902,2.0833
0.0167,1.7792,0,1.5909,2.0821
0.0165,1.7498,0,1.5916,2.0808
0.02,1.7237,0,1.5921,2.0794
0.0166,1.7215,0,1.5926,2.078
0.02,1.7273,0,1.5931,2.0766
0.0167,1.5826,0,1.5901,2.0747
0.0166,2.2317,1,1.5927,2.0923
0.0201,3.2105,0,1.599,2.1534
0.0168,2.354,0,1.602,2.1542
0.02,1.7296,0,1.596,2.1525
0.0166,1.4693,0,1.5864,2.1499
0.0166,1.4119,0,1.5785,2.147
0.0201,1.4351,0,1.5733,2.1442
0.0165,1.4852,0,1.5708,2.1416
0.0167,1.5378,0,1.5704,2.1392
0.02,1.5911,0,1.5705,2.1371
0.0167,1.6317,0,1.5707,2.1351
0.02,1.6485,0,1.571,2.1332
0.0167,1.6704,0,1.5714,2.1314
0.0166,1.7233,0,1.572,2.1298
0.0201,1.78,0,1.5728,2.1284
0.0167,1.8576,0,1.5739,2.1273
0.0166,1.8704,0,1.5751,2.1263
0.0201,1.7998,0,1.576,2.1251
0.0166,1.7241,0,1.5766,2.1235
0.02,1.676,0,1.5769,2.1217
0.0167,1.66,0,1.5773,2.1199
0.0168,1.6612,0,1.5776,2.1181
0.02,1.6648,0,1.5779,2.1163
0.0167,1.6726,0,1.5783,2.1146
0.0167,1.6784,0,1.5787,2.1129
0.02,1.6869,0,1.5791,2.1112
0.0166,1.7027,0,1.5796,2.1096
0.02,1.7243,0,1.5802,2.1081
0.0167,1.7282,0,1.5808,2.1066
0.0166,1.7361,0,1.5814,2.1052
0.0201,1.7256,0,1.5819,2.1037
0.0175,1.7189,0,1.5825,2.1022
0.0158,1.7069,0,1.583,2.1006
0.0201,1.7061,0,1.5834,2.0991
0.0167,1.7157,0,1.584,2.0976
0.02,1.7286,0,1.5845,2.0961
0.0165,1.7492,0,1.5852,2.0948
0.0166,1.7561,0,1.5858,2.0934
0.02,1.7551,0,1.5865,2.0921
0.0167,1.7515,0,1.5872,2.0908
0.0166,1.7406,0,1.5878,2.0894
0.0201,1.7369,0,1.5883,2.088
0.0166,1.7357,0,1.5889,2.0866
0.02,1.7516,0,1.5896,2.0853
0.0166,1.7667,0,1.5903,2.0841
0.0166,1.8043,0,1.5911,2.083
0.02,1.7777,0,1.5918,2.0818
0.0167,1.7558,0,1.5925,2.0805
0.0167,1.7355,0,1.593,2.0791
0.0201,1.7287,0,1.5936,2.0778
0.0166,1.7199,0,1.5941,2.0764
0.02,1.5443,0,1.589,2.0743
0.0166,2.5285,1,1.5927,2.1095
0.0167,3.0748,0,1.5985,2.157
0.0201,2.224,0,1.601,2.1572
0.0166,1.6863,0,1.5948,2.1554
0.0167,1.4679,0,1.586,2.1527
0.02,1.4342,0,1.5794,2.1499
0.0167,1.4589,0,1.5751,2.1471
0.02,1.4996,0,1.5729,2.1446
0.0167,1.536,0,1.5721,2.1422
0.0167,1.5743,0,1.5721,2.14
0.02,1.6098,0,1.5723,2.1379
0.0167,1.6379,0,1.5725,2.136
0.0166,1.6832,0,1.5729,2.1342
0.02,1.7373,0,1.5736,2.1326
0.0167,1.8173,0,1.5745,2.1314
0.02,1.8896,0,1.5758,2.1304
0.0167,1.8811,0,1.577,2.1295
0.0167,1.7903,0,1.5778,2.1281
0.02,1.7014,0,1.5783,2.1265
0.0167,1.6522,0,1.5786,2.1246
0.0199,1.6325,0,1.5788,2.1227
0.0167,1.6488,0,1.5791,2.1208
0.0166,1.677,0,1.5795,2.1191
0.0201,1.6994,0,1.5799,2.1174
0.0166,1.7102,0,1.5804,2.1158
0.0167,1.7105,0,1.581,2.1142
0.0201,1.7139,0,1.5815,2.1127
0.0166,1.7182,0,1.582,2.1111
0.0201,1.7034,0,1.5825,2.1095
0.0166,1.7017,0,1.583,2.1079
0.0166,1.6946,0,1.5834,2.1063
0.02,1.7053,0,1.5839,2.1047
0.0166,1.7187,0,1.5844,2.1032
0.0167,1.7361,0,1.585,2.1018
0.0201,1.7322,0,1.5856,2.1003
0.0167,1.7276,0,1.5861,2.0989
0.02,1.7228,0,1.5867,2.0974
0.0167,1.7212,0,1.5872,2.0959
0.0177,1.7272,0,1.5877,2.0945
0.019,1.7292,0,1.5883,2.093
0.0166,1.7234,0,1.5888,2.0916
0.0167,1.7344,0,1.5894,2.0902
0.02,1.7512,0,1.59,2.0889
0.0167,1.7567,0,1.5907,2.0876
0.0199,1.7944,0,1.5915,2.0864
0.0168,1.8103,0,1.5923,2.0853
0.0166,1.8025,0,1.5932,2.0842
0.02,1.7641,0,1.5938,2.083
0.0166,1.7252,0,1.5944,2.0816
0.0167,1.7025,0,1.5948,2.0801
0.0201,1.7014,0,1.5952,2.0786
0.0165,1.6066,0,1.594,2.0767
0.02,1.9073,1,1.5952,2.0761
0.0167,3.2848,0,1.6018,2.1478
0.0167,2.571,0,1.6056,2.1518
0.0199,1.8475,0,1.6023,2.1506
0.0168,1.5086,0,1.5927,2.1481
0.0167,1.4087,0,1.5837,2.1452
0.02,1.4178,0,1.5774,2.1423
0.0167,1.4664,0,1.5739,2.1397
0.02,1.5217,0,1.5728,2.1372
0.0165,1.576,0,1.5728,2.135
0.0167,1.6136,0,1.573,2.133
0.0201,1.6425,0,1.5732,2.1311
0.0167,1.6814,0,1.5737,2.1293
0.0167,1.7205,0,1.5742,2.1277
0.0201,1.7693,0,1.575,2.1263
0.0166,1.8443,0,1.5761,2.1252
0.0201,1.8725,0,1.5772,2.1242
0.0166,1.8135,0,1.5782,2.123
0.0166,1.7319,0,1.5788,2.1214
0.0201,1.6754,0,1.5791,2.1197
0.0167,1.6533,0,1.5794,2.1179
0.0167,1.6622,0,1.5798,2.1161
0.02,1.6717,0,1.5801,2.1143
0.0168,1.6749,0,1.5805,2.1126
0.02,1.6727,0,1.5808,2.1109
0.0167,1.6784,0,1.5812,2.1092
0.0166,1.6934,0,1.5817,2.1076
0.02,1.6951,0,1.5821,2.1059
0.0166,1.7087,0,1.5826,2.1044
0.0167,1.7133,0,1.5831,2.1029
0.0201,1.7278,0,1.5837,2.1014
0.0166,1.7359,0,1.5843,2.1
0.02,1.7289,0,1.5849,2.0985
0.0167,1.7232,0,1.5854,2.097
0.0166,1.7116,0,1.5859,2.0955
0.02,1.7077,0,1.5864,2.094
0.0176,1.7097,0,1.5869,2.0925
0.0171,1.7266,0,1.5874,2.0911
0.0194,1.7388,0,1.588,2.0897
0.016,1.7494,0,1.5886,2.0883
0.0199,1.7398,0,1.5892,2.087
0.0166,1.7432,0,1.5898,2.0856
0.0167,1.7378,0,1.5904,2.0843
0.0201,1.7425,0,1.591,2.0829
0.0166,1.7571,0,1.5917,2.0816
0.0166,1.7327,0,1.5922,2.0803
0.0201,1.7212,0,1.5927,2.0789
0.0165,1.7174,0,1.5932,2.0774
0.02,1.726,0,1.5937,2.0761
0.0167,1.6832,0,1.5941,2.0745
0.0166,1.6689,0,1.5944,2.0729
0.02,3.1174,1,1.6003,2.1395
0.0167,2.7563,0,1.6049,2.1573
0.0166,1.9517,0,1.6043,2.1565
0.0201,1.5368,0,1.5943,2.154
0.0165,1.4018,0,1.5844,2.1511
0.0201,1.4089,0,1.5776,2.1482
0.0166,1.4635,0,1.5741,2.1455
0.0166,1.524,0,1.5732,2.1431
0.02,1.5735,0,1.5732,2.1408
0.0167,1.6161,0,1.5734,2.1388
0.0167,1.6465,0,1.5737,2.1368
0.02,1.6665,0,1.574,2.135
0.0166,1.6959,0,1.5745,2.1333
0.0201,1.7546,0,1.5752,2.1318
0.0167,1.8361,0,1.5762,2.1306
0.0165,1.8861,0,1.5775,2.1297
0.0201,1.8473,0,1.5785,2.1286
0.0166,1.766,0,1.5792,2.1271
0.02,1.703,0,1.5797,2.1255
0.0167,1.6723,0,1.5801,2.1237
0.0167,1.6522,0,1.5804,2.1218
0.02,1.6619,0,1.5807,2.12
0.0167,1.6651,0,1.581,2.1183
0.0167,1.6759,0,1.5814,2.1165
0.02,1.6926,0,1.5818,2.1149
0.0166,1.7014,0,1.5823,2.1132
0.02,1.7141,0,1.5828,2.1117
0.0167,1.7281,0,1.5834,2.1102
0.0167,1.736,0,1.584,2.1087
0.0201,1.7321,0,1.5846,2.1072
0.0166,1.7146,0,1.5851,2.1057
0.0167,1.712,0,1.5856,2.1041
0.0201,1.7078,0,1.5861,2.1026
0.0167,1.713,0,1.5866,2.1011
0.0199,1.7212,0,1.5871,2.0996
0.0167,1.7305,0,1.5876,2.0981
0.0167,1.7433,0,1.5883,2.0967
0.0201,1.7476,0,1.5889,2.0954
0.0166,1.7458,0,1.5895,2.094
0.0168,1.7419,0,1.5901,2.0926
0.02,1.7276,0,1.5906,2.0912
0.0177,1.7293,0,1.5912,2.0898
0.0189,1.7527,0,1.5918,2.0884
0.0166,1.7801,0,1.5925,2.0872
0.0167,1.7664,0,1.5932,2.086
0.02,1.7716,0,1.5939,2.0847
0.0167,1.7473,0,1.5945,2.0834
0.0167,1.7424,0,1.5951,2.0821
0.02,1.6919,0,1.5955,2.0805
0.0167,1.6653,0,1.5958,2.0789
0.02,3.0901,1,1.6016,2.1437
0.0167,2.7211,0,1.606,2.1599
0.0166,1.9497,0,1.6059,2.159
0.0201,1.5557,0,1.597,2.1567
0.0166,1.4342,0,1.5884,2.1538
0.0166,1.436,0,1.5825,2.151
0.0201,1.4823,0,1.5794,2.1484
0.0166,1.5368,0,1.5787,2.146
0.02,1.5745,0,1.5786,2.1438
0.0167,1.6099,0,1.5788,2.1417
0.018,1.6314,0,1.579,2.1397
0.0187,1.6614,0,1.5793,2.1378
0.0166,1.704,0,1.5798,2.1361
0.0167,1.7606,0,1.5805,2.1346
0.0207,1.8413,0,1.5815,2.1335
0.0173,1.8878,0,1.5827,2.1325
0.0187,1.8414,0,1.5837,2.1314
0.0167,1.751,0,1.5844,2.1299
0.0167,1.6883,0,1.5848,2.1281
0.0201,1.6543,0,1.5851,2.1263
0.0166,1.6528,0,1.5853,2.1244
0.0166,1.6653,0,1.5857,2.1226
0.0201,1.6858,0,1.586,2.1209
0.0166,1.6991,0,1.5865,2.1192
0.02,1.7101,0,1.587,2.1176
0.0177,1.73,0,1.5875,2.1161
0.0156,1.7269,0,1.5881,2.1146
0.0201,1.7226,0,1.5886,2.1131
0.0167,1.7146,0,1.5891,2.1115
0.0181,1.6989,0,1.5895,2.1099
0.0186,1.7035,0,1.59,2.1083
0.0166,1.705,0,1.5904,2.1067
0.0202,1.712,0,1.5909,2.1052
0.0164,1.7274,0,1.5914,2.1037
0.0166,1.7423,0,1.592,2.1023
0.02,1.7408,0,1.5926,2.1008
0.0167,1.737,0,1.5932,2.0994
0.017,1.7259,0,1.5937,2.0979
0.0205,1.719,0,1.5942,2.0965
0.0174,1.7167,0,1.5947,2.095
0.0185,1.7224,0,1.5952,2.0935
0.0166,1.7309,0,1.5957,2.0921
0.0167,1.75,0,1.5963,2.0907
0.02,1.7792,0,1.597,2.0895
0.0166,1.7628,0,1.5977,2.0882
0.0167,1.7541,0,1.5983,2.0869
0.02,1.7349,0,1.5988,2.0856
0.0166,1.7285,0,1.5993,2.0842
0.0201,1.6091,0,1.5976,2.0823
0.0175,1.9081,1,1.5988,2.0816
0.0158,3.2525,0,1.6053,2.1513
0.02,2.5537,0,1.609,2.1547
0.0167,1.8516,0,1.6062,2.1535
0.0183,1.5165,0,1.5967,2.151
0.0183,1.4374,0,1.5891,2.1482
0.0167,1.4404,0,1.5833,2.1454
0.02,1.4772,0,1.5798,2.1428
0.0168,1.522,0,1.5783,2.1404
0.0178,1.5566,0,1.5781,2.1381
0.0189,1.5974,0,1.5782,2.136
0.0165,1.6273,0,1.5783,2.134
0.02,1.6666,0,1.5787,2.1321
0.0167,1.7188,0,1.5792,2.1305
0.0166,1.785,0,1.58,2.1292
0.0201,1.8528,0,1.5811,2.1281
0.0166,1.8721,0,1.5823,2.1271
0.0168,1.8068,0,1.5831,2.1258
0.0208,1.7232,0,1.5837,2.1242
0.0169,1.6627,0,1.584,2.1224
0.019,1.6458,0,1.5842,2.1206
0.0167,1.6467,0,1.5845,2.1187
0.0167,1.6796,0,1.5849,2.117
0.0205,1.6938,0,1.5853,2.1153
0.0162,1.7148,0,1.5858,2.1138
0.0167,1.7186,0,1.5863,2.1122
0.02,1.7198,0,1.5868,2.1107
0.0168,1.7137,0,1.5873,2.1091
0.0199,1.7117,0,1.5878,2.1076
0.0175,1.7077,0,1.5883,2.106
0.0159,1.6999,0,1.5887,2.1044
0.02,1.7103,0,1.5892,2.1028
0.0167,1.7203,0,1.5897,2.1013
0.0179,1.7269,0,1.5903,2.0999
0.0188,1.7226,0,1.5908,2.0984
0.0167,1.7244,0,1.5913,2.0969
0.02,1.7283,0,1.5918,2.0955
0.0167,1.7296,0,1.5924,2.0941
0.0166,1.7267,0,1.5929,2.0926
0.0201,1.716,0,1.5934,2.0911
0.0179,1.7287,0,1.5939,2.0897
0.0155,1.733,0,1.5945,2.0883
0.0207,1.7539,0,1.5951,2.087
0.0171,1.787,0,1.5958,2.0858
0.0188,1.7654,0,1.5965,2.0846
0.0167,1.7387,0,1.5971,2.0832
0.0167,1.7167,0,1.5975,2.0818
0.0204,1.7062,0,1.598,2.0803
0.0161,1.6994,0,1.5984,2.0788
0.018,1.5407,0,1.5933,2.0767
0.0187,2.5175,1,1.5969,2.1112
0.0168,2.9669,0,1.6023,2.1527
0.0199,2.1815,0,1.6046,2.1528
0.0173,1.6754,0,1.5984,2.151
0.0159,1.4838,0,1.5905,2.1483
0.02,1.4461,0,1.5842,2.1456
0.0168,1.4661,0,1.5799,2.1429
0.0181,1.5053,0,1.5777,2.1404
0.0186,1.5379,0,1.5767,2.1381
0.0167,1.5879,0,1.5768,2.1359
0.0199,1.6143,0,1.5769,2.1339
0.0167,1.6557,0,1.5772,2.132
0.0179,1.6989,0,1.5777,2.1303
0.0188,1.7589,0,1.5784,2.1288
0.0167,1.8147,0,1.5793,2.1276
0.0168,1.8659,0,1.5804,2.1266
0.0199,1.8373,0,1.5815,2.1254
0.0183,1.7561,0,1.5821,2.124
0.0184,1.6769,0,1.5825,2.1222
0.0167,1.6408,0,1.5827,2.1203
0.0167,1.6483,0,1.583,2.1185
0.0205,1.6703,0,1.5833,2.1167
0.017,1.6809,0,1.5837,2.115
0.0157,1.7007,0,1.5842,2.1134
0.02,1.7074,0,1.5847,2.1118
0.0171,1.7063,0,1.5851,2.1102
0.0198,1.6994,0,1.5856,2.1086
0.0165,1.6906,0,1.586,2.107
0.0167,1.6942,0,1.5864,2.1053
0.0202,1.7117,0,1.5869,2.1038
0.0165,1.7208,0,1.5874,2.1023
0.0184,1.7303,0,1.588,2.1008
0.0182,1.74,0,1.5886,2.0994
0.0167,1.7367,0,1.5892,2.098
0.0199,1.7356,0,1.5898,2.0966
0.0167,1.732,0,1.5903,2.0952
0.0178,1.7276,0,1.5908,2.0937
0.0189,1.7261,0,1.5914,2.0923
0.0167,1.7288,0,1.5919,2.0908
0.0167,1.7363,0,1.5925,2.0895
0.0204,1.7681,0,1.5932,2.0882
0.0163,1.7982,0,1.594,2.0871
0.02,1.7724,0,1.5947,2.0858
0.0167,1.7475,0,1.5953,2.0845
0.0168,1.7164,0,1.5957,2.0831
0.0205,1.7028,0,1.5962,2.0816
0.0173,1.5842,0,1.5936,2.0796
0.0157,1.9259,1,1.5949,2.0796
0.0199,3.1249,0,1.6009,2.1418
0.0166,2.433,0,1.6042,2.1429
0.0205,1.8243,0,1.6021,2.1417
0.0162,1.5433,0,1.5948,2.1393
0.0167,1.4528,0,1.5876,2.1366
0.02,1.4585,0,1.5827,2.134
0.0168,1.493,0,1.5798,2.1314
0.0166,1.5273,0,1.5783,2.1291
0.0201,1.5681,0,1.5783,2.1269
0.0167,1.611,0,1.5784,2.1249
0.0199,1.6514,0,1.5787,2.123
0.0168,1.6942,0,1.5791,2.1213
0.0174,1.7508,0,1.5798,2.1199
0.0191,1.8218,0,1.5808,2.1187
0.0166,1.8878,0,1.582,2.1178
0.02,1.8772,0,1.5831,2.1168
0.0167,1.7922,0,1.5839,2.1156
0.0177,1.6988,0,1.5844,2.1139
0.019,1.6578,0,1.5847,2.1121
0.0166,1.6376,0,1.5849,2.1103
0.0171,1.6537,0,1.5852,2.1085
0.0197,1.6786,0,1.5855,2.1068
0.0179,1.6967,0,1.586,2.1052
0.0186,1.706,0,1.5864,2.1036
0.0167,1.7189,0,1.587,2.1021
0.0167,1.7101,0,1.5874,2.1006
0.0204,1.7072,0,1.5879,2.099
0.017,1.703,0,1.5884,2.0975
0.016,1.6983,0,1.5888,2.0959
0.02,1.7065,0,1.5893,2.0944
0.0167,1.7223,0,1.5898,2.0929
0.0199,1.7276,0,1.5903,2.0915
0.0167,1.7391,0,1.5909,2.0901
0.0167,1.7429,0,1.5915,2.0888
0.02,1.7377,0,1.5921,2.0874
0.0167,1.7392,0,1.5926,2.086
0.0181,1.73,0,1.5932,2.0846
0.0185,1.7269,0,1.5937,2.0832
0.0167,1.7356,0,1.5943,2.0819
0.0166,1.7646,0,1.5949,2.0806
0.0205,1.784,0,1.5957,2.0795
0.0173,1.7644,0,1.5963,2.0782
0.0189,1.7644,0,1.597,2.077
0.0166,1.7384,0,1.5976,2.0757
0.0167,1.7329,0,1.5981,2.0743
0.0205,1.578,0,1.5946,2.0724
0.0173,2.1584,1,1.5968,2.086
0.0188,3.1372,0,1.6028,2.1445
0.0167,2.3458,0,1.6057,2.1453
0.0167,1.7692,0,1.602,2.1438
0.02,1.5119,0,1.5939,2.1413
0.0178,1.4587,0,1.5876,2.1386
0.0156,1.4735,0,1.5834,2.136
0.02,1.5176,0,1.5816,2.1336
0.0169,1.5583,0,1.5814,2.1314
0.0199,1.5882,0,1.5815,2.1292
0.0171,1.621,0,1.5816,2.1272
0.0161,1.6449,0,1.5819,2.1253
0.0201,1.6855,0,1.5823,2.1236
0.0167,1.7381,0,1.5829,2.1221
0.0166,1.8143,0,1.5838,2.1209
0.0201,1.8853,0,1.585,2.12
0.0166,1.8731,0,1.5861,2.119
0.02,1.7844,0,1.5869,2.1177
0.0167,1.6929,0,1.5873,2.116
0.0179,1.6461,0,1.5875,2.1142
0.0189,1.6305,0,1.5877,2.1123
0.0167,1.6383,0,1.5879,2.1104
0.0165,1.6572,0,1.5882,2.1087
0.0201,1.6928,0,1.5886,2.107
0.0166,1.721,0,1.5891,2.1055
0.02,1.7337,0,1.5897,2.104
0.0167,1.7379,0,1.5902,2.1026
0.0166,1.7262,0,1.5908,2.1011
0.0202,1.7159,0,1.5913,2.0996
0.0178,1.7091,0,1.5917,2.0981
0.0153,1.7101,0,1.5922,2.0966
0.0201,1.7137,0,1.5927,2.0951
0.0167,1.7182,0,1.5932,2.0936
0.0204,1.7229,0,1.5937,2.0921
0.0161,1.7343,0,1.5942,2.0907
0.0167,1.7381,0,1.5948,2.0894
0.02,1.7393,0,1.5954,2.088
0.0167,1.7267,0,1.5959,2.0866
0.018,1.729,0,1.5964,2.0852
0.0188,1.7266,0,1.5969,2.0838
0.0166,1.7322,0,1.5974,2.0824
0.02,1.7537,0,1.598,2.0811
0.0168,1.7804,0,1.5988,2.0799
0.0181,1.7567,0,1.5994,2.0786
0.0184,1.7488,0,1.6,2.0773
0.0167,1.7299,0,1.6005,2.076
0.0167,1.7171,0,1.6009,2.0746
0.02,1.5955,0,1.5986,2.0727
0.0176,1.9427,1,1.5999,2.0737
0.0191,3.2413,0,1.6064,2.1424
0.017,2.4946,0,1.6098,2.1438
0.0177,1.8123,0,1.6057,2.1425
0.0185,1.5067,0,1.5965,2.14
0.0166,1.4309,0,1.5886,2.1372
0.0167,1.448,0,1.5834,2.1345
0.02,1.4928,0,1.5806,2.132
0.0168,1.537,0,1.5797,2.1297
0.0201,1.5648,0,1.5796,2.1275
0.0171,1.5904,0,1.5797,2.1254
0.016,1.6249,0,1.5798,2.1234
0.02,1.6723,0,1.5802,2.1216
0.0167,1.7207,0,1.5808,2.1201
0.018,1.802,0,1.5816,2.1188
0.0187,1.891,0,1.5828,2.1179
0.0166,1.9044,0,1.5841,2.1171
0.02,1.8176,0,1.585,2.1159
0.0168,1.7202,0,1.5855,2.1144
0.0165,1.665,0,1.5859,2.1126
0.0202,1.64,0,1.5861,2.1107
0.0166,1.6513,0,1.5863,2.1089
0.017,1.6681,0,1.5866,2.1072
0.0205,1.6834,0,1.587,2.1055
0.016,1.7016,0,1.5875,2.104
0.0198,1.7174,0,1.588,2.1024
0.0166,1.7227,0,1.5885,2.101
0.0167,1.7179,0,1.589,2.0995
0.0205,1.7098,0,1.5895,2.0979
0.0162,1.7039,0,1.5899,2.0964
0.0166,1.6954,0,1.5904,2.0948
0.0201,1.7056,0,1.5908,2.0933
0.0169,1.7187,0,1.5913,2.0918
0.02,1.7264,0,1.5918,2.0904
0.0171,1.7354,0,1.5924,2.089
0.016,1.7385,0,1.593,2.0876
0.02,1.7362,0,1.5935,2.0862
0.0166,1.7322,0,1.5941,2.0848
0.0183,1.7309,0,1.5946,2.0835
0.0185,1.7304,0,1.5951,2.0821
0.0167,1.7368,0,1.5957,2.0807
0.02,1.7585,0,1.5963,2.0795
0.0168,1.7918,0,1.5971,2.0783
0.0175,1.7768,0,1.5978,2.0771
0.0189,1.7588,0,1.5984,2.0759
0.0167,1.7365,0,1.599,2.0746
0.0169,1.7258,0,1.5995,2.0732
0.0201,1.7157,0,1.5999,2.0718
0.0174,1.5657,0,1.5959,2.0698
0.0191,2.8419,1,1.6008,2.1226
0.0166,2.9512,0,1.6061,2.157
0.0167,2.0818,0,1.608,2.1567
0.0205,1.5998,0,1.5992,2.1546
0.017,1.4358,0,1.5899,2.1517
0.0158,1.4235,0,1.5831,2.1489
0.02,1.4553,0,1.5787,2.1462
0.0167,1.4952,0,1.5761,2.1436
0.0201,1.5313,0,1.575,2.1412
0.0165,1.5727,0,1.575,2.139
0.0179,1.6093,0,1.5751,2.1369
0.0187,1.6541,0,1.5754,2.135
0.0168,1.7081,0,1.5759,2.1333
0.0165,1.7587,0,1.5767,2.1319
0.02,1.8309,0,1.5777,2.1307
0.0167,1.8909,0,1.5789,2.1297
0.02,1.8489,0,1.5799,2.1286
0.0167,1.7633,0,1.5807,2.1272
0.0168,1.6761,0,1.581,2.1254
0.02,1.6437,0,1.5813,2.1235
0.0166,1.6492,0,1.5815,2.1217
0.0166,1.6739,0,1.5819,2.1199
0.02,1.6984,0,1.5824,2.1183
0.0167,1.7001,0,1.5828,2.1166
0.02,1.7104,0,1.5833,2.115
0.0167,1.7236,0,1.5839,2.1135
0.0169,1.7215,0,1.5844,2.112
0.0202,1.7208,0,1.585,2.1104
0.0172,1.7108,0,1.5854,2.1089
0.019,1.7107,0,1.5859,2.1073
0.0167,1.7107,0,1.5864,2.1058
0.0168,1.7139,0,1.5869,2.1042
0.0207,1.7215,0,1.5875,2.1027
0.0159,1.7338,0,1.588,2.1013
0.0167,1.7412,0,1.5886,2.0999
0.02,1.7371,0,1.5892,2.0984
0.0167,1.726,0,1.5897,2.097
0.0199,1.7158,0,1.5902,2.0955
0.0175,1.7156,0,1.5907,2.094
0.0158,1.7253,0,1.5913,2.0925
0.02,1.7416,0,1.5919,2.0912
0.0167,1.7633,0,1.5925,2.0899
0.0182,1.7966,0,1.5933,2.0887
0.0185,1.7654,0,1.594,2.0875
0.0166,1.7517,0,1.5946,2.0862
0.02,1.7276,0,1.5951,2.0847
0.0167,1.7065,0,1.5956,2.0833
0.0166,1.6506,0,1.5958,2.0816
0.0201,1.6515,0,1.596,2.0799
0.0166,3.1084,1,1.6019,2.1459
0.0169,2.7272,0,1.6064,2.162
0.0199,1.942,0,1.6057,2.1611
0.0166,1.5466,0,1.5964,2.1587
0.02,1.4181,0,1.5871,2.1558
0.0167,1.4111,0,1.5801,2.1529
0.0167,1.4414,0,1.5752,2.1501
0.02,1.4906,0,1.5727,2.1475
0.0168,1.5265,0,1.5716,2.1451
0.0167,1.5743,0,1.5716,2.1428
0.02,1.6131,0,1.5717,2.1408
0.0167,1.6423,0,1.572,2.1388
0.02,1.6911,0,1.5725,2.1371
0.0175,1.7595,0,1.5732,2.1356
0.0167,1.8214,0,1.5742,2.1343
0.019,1.8681,0,1.5753,2.1333
0.0167,1.8088,0,1.5762,2.132
0.0168,1.7206,0,1.5768,2.1304
0.02,1.6586,0,1.5771,2.1286
0.0166,1.6477,0,1.5774,2.1267
0.02,1.6571,0,1.5777,2.1248
0.0166,1.6798,0,1.5781,2.1231
0.0166,1.6906,0,1.5786,2.1214
0.02,1.7007,0,1.579,2.1197
0.0167,1.7139,0,1.5796,2.1182
0.0166,1.7182,0,1.5801,2.1166
0.0201,1.7164,0,1.5806,2.115
0.0166,1.7191,0,1.5812,2.1135
0.0201,1.7135,0,1.5817,2.1119
0.0166,1.7116,0,1.5822,2.1103
0.0182,1.7207,0,1.5828,2.1088
0.0192,1.7238,0,1.5833,2.1073
0.0168,1.7378,0,1.5839,2.1058
0.0157,1.7393,0,1.5845,2.1044
0.02,1.7332,0,1.5851,2.1029
0.0166,1.7312,0,1.5857,2.1015
0.0203,1.7208,0,1.5862,2.1
0.0164,1.7466,0,1.5868,2.0986
0.0166,1.7683,0,1.5876,2.0973
0.0201,1.7918,0,1.5884,2.0961
0.0167,1.7801,0,1.5891,2.0949
0.0167,1.7566,0,1.5898,2.0935
0.02,1.7227,0,1.5903,2.0921
0.0167,1.7147,0,1.5908,2.0906
0.02,1.7055,0,1.5912,2.0891
0.0167,1.5753,0,1.5883,2.0871
0.0179,2.037,1,1.5901,2.0933
0.0189,3.2075,0,1.5964,2.1576
0.0167,2.4181,0,1.5996,2.1586
0.0167,1.7542,0,1.594,2.1571
0.02,1.471,0,1.5842,2.1544
0.0166,1.4092,0,1.5762,2.1514
0.02,1.4244,0,1.5705,2.1486
0.0167,1.4654,0,1.5671,2.1459
0.0167,1.5116,0,1.5658,2.1434
0.02,1.5465,0,1.5656,2.1411
0.0168,1.5712,0,1.5656,2.1389
0.0199,1.599,0,1.5658,2.1367
0.0167,1.6376,0,1.5661,2.1348
0.0167,1.6863,0,1.5665,2.133
0.0203,1.7612,0,1.5673,2.1316
0.017,1.8383,0,1.5684,2.1304
0.0159,1.851,0,1.5695,2.1293
0.02,1.7867,0,1.5703,2.128
0.0167,1.71,0,1.5709,2.1263
0.02,1.6648,0,1.5712,2.1245
0.0166,1.6498,0,1.5715,2.1227
0.0167,1.661,0,1.5719,2.1208
0.0201,1.668,0,1.5723,2.1191
0.0167,1.6867,0,1.5727,2.1174
0.0185,1.7157,0,1.5733,2.1158
0.0186,1.7156,0,1.5738,2.1142
0.0162,1.7253,0,1.5744,2.1127
0.0199,1.7188,0,1.575,2.1112
0.0167,1.7134,0,1.5755,2.1096
0.0168,1.7116,0,1.5761,2.108
0.02,1.7142,0,1.5766,2.1065
0.0166,1.7184,0,1.5772,2.105
0.0167,1.7263,0,1.5778,2.1035
0.0204,1.7354,0,1.5784,2.102
0.0162,1.7482,0,1.579,2.1007
0.02,1.7753,0,1.5798,2.0994
0.0166,1.8006,0,1.5807,2.0982
0.0167,1.7863,0,1.5815,2.097
0.02,1.7359,0,1.5821,2.0956
0.0168,1.6897,0,1.5825,2.094
0.0166,1.6711,0,1.5829,2.0923
0.0201,1.6714,0,1.5832,2.0907
0.0174,1.6357,0,1.5834,2.0889
0.0191,1.6466,0,1.5837,2.0872
0.0166,3.048,1,1.5894,2.1496
0.0167,2.6582,0,1.5936,2.1626
0.02,1.9353,0,1.5942,2.1617
0.0167,1.564,0,1.5865,2.1594
0.0167,1.4304,0,1.578,2.1565
0.0201,1.425,0,1.5719,2.1537
0.0166,1.4721,0,1.5688,2.151
0.02,1.5236,0,1.568,2.1485
0.0168,1.5766,0,1.568,2.1463
0.0166,1.6171,0,1.5682,2.1442
0.02,1.6469,0,1.5685,2.1423
0.0167,1.6796,0,1.5689,2.1405
0.02,1.7199,0,1.5695,2.1388
0.0167,1.7724,0,1.5703,2.1374
0.0166,1.842,0,1.5714,2.1362
0.0201,1.8522,0,1.5725,2.1351
0.0167,1.7806,0,1.5733,2.1337
0.018,1.7079,0,1.5738,2.132
0.0188,1.6576,0,1.5742,2.1302
0.0166,1.6636,0,1.5745,2.1283
0.02,1.6657,0,1.5749,2.1265
0.0167,1.6696,0,1.5752,2.1247
0.0167,1.6742,0,1.5756,2.123
0.02,1.6855,0,1.5761,2.1213
0.0167,1.6925,0,1.5765,2.1196
0.0166,1.6981,0,1.577,2.1179
0.02,1.7065,0,1.5775,2.1163
0.0167,1.7093,0,1.578,2.1147
0.02,1.7167,0,1.5786,2.1132
0.0166,1.7224,0,1.5791,2.1116
0.0167,1.7276,0,1.5797,2.1101
0.02,1.7163,0,1.5802,2.1086
0.0166,1.7223,0,1.5808,2.1071
0.0168,1.7536,0,1.5815,2.1057
0.0204,1.7934,0,1.5823,2.1044
0.0173,1.7936,0,1.5831,2.1032
0.019,1.7676,0,1.5839,2.1019
0.0166,1.7329,0,1.5845,2.1005
0.0185,1.705,0,1.5849,2.0989
0.0181,1.699,0,1.5854,2.0973
0.0167,1.6807,0,1.5857,2.0957
0.0167,1.554,0,1.5823,2.0936
0.02,2.8152,1,1.5871,2.1441
0.0167,2.7664,0,1.5917,2.1677
0.02,2.0006,0,1.5933,2.167
0.0166,1.5857,0,1.5857,2.1647
0.0167,1.4507,0,1.578,2.1619
0.02,1.4546,0,1.5733,2.1592
0.0166,1.4819,0,1.5702,2.1565
0.0167,1.5301,0,1.5694,2.1541
0.02,1.5821,0,1.5695,2.1518
0.0167,1.6222,0,1.5697,2.1497
0.02,1.6388,0,1.57,2.1477
0.0168,1.6574,0,1.5703,2.1458
0.0165,1.6929,0,1.5708,2.144
0.0201,1.7601,0,1.5715,2.1425
0.0166,1.8444,0,1.5726,2.1414
0.0167,1.8758,0,1.5738,2.1403
0.02,1.8178,0,1.5748,2.1391
0.0166,1.7366,0,1.5754,2.1375
0.02,1.6802,0,1.5758,2.1357
0.0167,1.6581,0,1.5761,2.1338
0.0168,1.6606,0,1.5765,2.132
0.0203,1.6581,0,1.5768,2.1301
0.0171,1.6769,0,1.5772,2.1283
0.0174,1.7026,0,1.5777,2.1267
0.0185,1.7275,0,1.5782,2.1251
0.0167,1.7423,0,1.5789,2.1236
0.02,1.7375,0,1.5795,2.1221
0.0166,1.7326,0,1.5801,2.1205
0.0167,1.731,0,1.5807,2.119
0.02,1.7142,0,1.5812,2.1174
0.0167,1.7183,0,1.5818,2.1159
0.0167,1.7165,0,1.5823,2.1143
0.02,1.7224,0,1.5828,2.1128
0.0167,1.7406,0,1.5835,2.1113
0.0201,1.763,0,1.5842,2.1099
0.0172,1.7933,0,1.585,2.1087
0.016,1.8327,0,1.586,2.1076
0.02,1.8067,0,1.5868,2.1064
0.0167,1.7753,0,1.5876,2.1051
0.0166,1.7126,0,1.588,2.1036
0.02,1.6918,0,1.5885,2.102
0.0166,1.6978,0,1.5889,2.1004
0.0201,1.6249,0,1.589,2.0985
0.0166,1.7929,0,1.5898,2.0973
0.0167,3.1978,1,1.5961,2.1653
0.0201,2.5843,0,1.6,2.1709
0.0166,1.865,0,1.5977,2.1697
0.0167,1.5308,0,1.5892,2.1672
0.02,1.4193,0,1.5805,2.1642
0.0167,1.418,0,1.5741,2.1613
0.0201,1.4665,0,1.5708,2.1586
0.0166,1.5283,0,1.5702,2.1561
0.0167,1.5782,0,1.5702,2.1539
0.0201,1.6241,0,1.5704,2.1518
0.0166,1.6623,0,1.5708,2.1499
0.02,1.6945,0,1.5713,2.1481
0.0166,1.7411,0,1.572,2.1465
0.0167,1.7892,0,1.5728,2.1451
0.0201,1.8509,0,1.5739,2.1439
0.0167,1.8552,0,1.575,2.1428
0.0167,1.7849,0,1.5758,2.1414
0.0201,1.7224,0,1.5764,2.1397
0.0166,1.6917,0,1.5769,2.138
0.0199,1.675,0,1.5772,2.1362
0.0167,1.6825,0,1.5777,2.1344
0.0166,1.685,0,1.5781,2.1326
0.02,1.6956,0,1.5785,2.1309
0.0167,1.7089,0,1.579,2.1293
0.0166,1.7101,0,1.5796,2.1276
0.0212,1.7072,0,1.5801,2.126
0.0157,1.7128,0,1.5806,2.1244
0.02,1.7211,0,1.5811,2.1228
0.0166,1.7272,0,1.5817,2.1212
0.0166,1.7422,0,1.5823,2.1197
0.02,1.744,0,1.583,2.1183
0.0167,1.7381,0,1.5836,2.1168
0.0166,1.7361,0,1.5842,2.1153
0.0201,1.7322,0,1.5848,2.1138
0.0167,1.7276,0,1.5853,2.1123
0.02,1.7228,0,1.5859,2.1107
0.0166,1.731,0,1.5864,2.1092
0.0167,1.7761,0,1.5872,2.1079
0.0201,1.8009,0,1.588,2.1067
0.0167,1.8059,0,1.5889,2.1056
0.0166,1.7587,0,1.5895,2.1042
0.0201,1.7299,0,1.5901,2.1027
0.0167,1.6975,0,1.5905,2.1011
0.02,1.677,0,1.5908,2.0995
0.0167,1.6636,0,1.5911,2.0978
0.0167,1.5386,0,1.5869,2.0956
0.02,2.8035,1,1.5916,2.1457
0.0166,2.8895,0,1.5967,2.1763
0.0166,2.0645,0,1.5985,2.1759
0.0201,1.6038,0,1.5906,2.1737
0.0167,1.4404,0,1.5818,2.1708
0.0201,1.4186,0,1.5751,2.1678
0.0166,1.4601,0,1.5713,2.1651
0.0167,1.5001,0,1.5692,2.1625
0.02,1.5525,0,1.5691,2.1601
0.0167,1.6058,0,1.5693,2.1579
0.0182,1.6399,0,1.5696,2.1559
0.019,1.674,0,1.57,2.154
0.0172,1.7082,0,1.5705,2.1522
0.0189,1.7685,0,1.5713,2.1507
0.0167,1.844,0,1.5724,2.1495
0.0166,1.8854,0,1.5736,2.1485
0.0201,1.8341,0,1.5746,2.1472
0.0166,1.7485,0,1.5753,2.1457
0.0201,1.6907,0,1.5757,2.1439
0.0167,1.6682,0,1.5761,2.142
0.0166,1.6835,0,1.5765,2.1402
0.02,1.6951,0,1.577,2.1385
0.0166,1.7087,0,1.5775,2.1368
0.0166,1.71,0,1.578,2.1351
0.0201,1.717,0,1.5786,2.1335
0.0166,1.7193,0,1.5791,2.1319
0.02,1.7038,0,1.5796,2.1302
0.0167,1.6986,0,1.5801,2.1285
0.0166,1.7034,0,1.5806,2.1268
0.0201,1.7115,0,1.5811,2.1252
0.0171,1.7207,0,1.5816,2.1236
0.0163,1.7238,0,1.5822,2.122
0.02,1.7281,0,1.5827,2.1205
0.0167,1.736,0,1.5833,2.119
0.0199,1.7256,0,1.5839,2.1174
0.0167,1.7222,0,1.5844,2.1159
0.0167,1.7177,0,1.585,2.1143
0.0202,1.7163,0,1.5855,2.1128
0.0172,1.7353,0,1.5861,2.1113
0.0171,1.7384,0,1.5867,2.1098
0.0199,1.7655,0,1.5874,2.1085
0.0156,1.8071,0,1.5882,2.1073
0.02,1.8308,0,1.5892,2.1062
0.0167,1.8094,0,1.59,2.1051
0.0166,1.7696,0,1.5908,2.1037
0.02,1.7271,0,1.5913,2.1023
0.0167,1.6933,0,1.5917,2.1007
0.0167,1.6918,0,1.5921,2.0991
0.0201,1.6522,0,1.5923,2.0973
0.0167,1.6293,0,1.5925,2.0955
0.02,3.0781,1,1.5983,2.1596
0.0166,2.7693,0,1.6029,2.178
0.0166,1.9625,0,1.6027,2.1772
0.0201,1.5372,0,1.5927,2.1747
0.0167,1.3987,0,1.5826,2.1716
0.0166,1.3916,0,1.575,2.1686
0.0201,1.4381,0,1.5705,2.1657
0.0167,1.4862,0,1.568,2.163
0.02,1.5381,0,1.5677,2.1606
0.0167,1.5912,0,1.5678,2.1584
0.0165,1.6317,0,1.5681,2.1563
0.0201,1.6681,0,1.5685,2.1544
0.0166,1.7062,0,1.569,2.1526
0.0167,1.7483,0,1.5697,2.151
0.0201,1.8144,0,1.5707,2.1497
0.0168,1.8593,0,1.5718,2.1486
0.0199,1.8156,0,1.5728,2.1473
0.0168,1.7554,0,1.5735,2.1457
0.0167,1.6962,0,1.574,2.144
0.0199,1.6765,0,1.5744,2.1421
0.0167,1.683,0,1.5748,2.1403
0.0167,1.6917,0,1.5753,2.1386
0.0201,1.688,0,1.5757,2.1368
0.0167,1.6901,0,1.5761,2.1351
0.02,1.694,0,1.5766,2.1333
0.0168,1.7084,0,1.5771,2.1317
0.0167,1.7099,0,1.5776,2.13
0.02,1.7169,0,1.5782,2.1284
0.0167,1.7193,0,1.5787,2.1268
0.0165,1.7266,0,1.5793,2.1252
0.0201,1.7322,0,1.5799,2.1237
0.0167,1.7374,0,1.5805,2.1222
0.02,1.7326,0,1.5811,2.1206
0.0166,1.7277,0,1.5817,2.1191
0.0167,1.7261,0,1.5823,2.1175
0.0201,1.7256,0,1.5828,2.116
0.0166,1.7254,0,1.5834,2.1145
0.0166,1.7351,0,1.584,2.113
0.02,1.7579,0,1.5847,2.1116
0.0167,1.7525,0,1.5853,2.1102
0.0199,1.7572,0,1.586,2.1088
0.0167,1.7522,0,1.5867,2.1074
0.0167,1.7669,0,1.5874,2.1061
0.02,1.7783,0,1.5881,2.1048
0.0167,1.7984,0,1.5889,2.1036
0.0166,1.7855,0,1.5897,2.1023
0.0201,1.7649,0,1.5904,2.101
0.0167,1.7353,0,1.591,2.0996
0.0201,1.7221,0,1.5915,2.0981
0.0166,1.721,0,1.592,2.0966
0.0166,1.6294,0,1.5918,2.0948
0.02,1.8269,0,1.5928,2.0937
0.0167,3.232,1,1.5992,2.1632
0.0167,2.5729,0,1.603,2.1676
0.0201,1.8449,0,1.5996,2.1663
0.0167,1.5013,0,1.5897,2.1637
0.02,1.403,0,1.5807,2.1608
0.0166,1.4159,0,1.5744,2.1578
0.0166,1.4788,0,1.5718,2.1552
0.0201,1.5324,0,1.5712,2.1527
0.0167,1.5698,0,1.5712,2.1504
0.0167,1.605,0,1.5713,2.1483
0.0201,1.6201,0,1.5715,2.1462
0.0167,1.6479,0,1.5718,2.1443
0.02,1.6897,0,1.5723,2.1425
0.0172,1.7526,0,1.573,2.141
0.0161,1.8354,0,1.574,2.1398
0.0201,1.8761,0,1.5752,2.1387
0.0165,1.8244,0,1.5762,2.1375
0.0166,1.7551,0,1.5769,2.136
0.02,1.6864,0,1.5773,2.1342
0.0167,1.6635,0,1.5776,2.1324
0.02,1.6591,0,1.578,2.1305
0.0167,1.6609,0,1.5783,2.1287
0.0167,1.6745,0,1.5787,2.1269
0.0201,1.6888,0,1.5791,2.1252
0.0167,1.7066,0,1.5796,2.1236
0.0165,1.7158,0,1.5801,2.122
0.0201,1.7189,0,1.5807,2.1204
0.0166,1.7232,0,1.5812,2.1188
0.02,1.7181,0,1.5818,2.1172
0.0167,1.7099,0,1.5823,2.1156
0.0167,1.7039,0,1.5827,2.114
0.0201,1.7117,0,1.5833,2.1125
0.0166,1.7142,0,1.5838,2.1109
0.0167,1.7249,0,1.5843,2.1094
0.02,1.7382,0,1.5849,2.1079
0.0166,1.7557,0,1.5856,2.1065
0.02,1.7452,0,1.5862,2.1051
0.0166,1.7417,0,1.5868,2.1037
0.0167,1.7275,0,1.5874,2.1022
0.0201,1.7293,0,1.5879,2.1008
0.0167,1.7201,0,1.5885,2.0993
0.0182,1.7236,0,1.589,2.0978
0.0185,1.728,0,1.5895,2.0963
0.0167,1.7425,0,1.5901,2.095
0.02,1.7701,0,1.5908,2.0937
0.0165,1.8087,0,1.5917,2.0926
0.0166,1.7857,0,1.5924,2.0914
0.0201,1.7552,0,1.5931,2.09
0.0166,1.7092,0,1.5935,2.0886
0.0167,1.6809,0,1.5939,2.087
0.02,1.6877,0,1.5943,2.0854
0.0167,1.5792,0,1.5917,2.0834
0.0201,2.009,1,1.5934,2.0881
0.0166,3.1754,0,1.5996,2.1513
0.0166,2.4335,0,1.6029,2.1524
0.02,1.7887,0,1.5988,2.151
0.0167,1.4988,0,1.5897,2.1484
0.02,1.4217,0,1.5818,2.1456
0.0167,1.4221,0,1.5755,2.1427
0.0166,1.4646,0,1.5719,2.1401
0.02,1.5178,0,1.5707,2.1376
0.0167,1.5617,0,1.5707,2.1354
0.0167,1.6056,0,1.5708,2.1333
0.0201,1.6333,0,1.5711,2.1313
0.0166,1.6686,0,1.5715,2.1295
0.02,1.7097,0,1.572,2.1279
0.0167,1.7657,0,1.5728,2.1264
0.0167,1.8431,0,1.5738,2.1253
0.0201,1.8688,0,1.575,2.1243
0.0168,1.796,0,1.5759,2.123
0.0166,1.7195,0,1.5764,2.1215
0.0201,1.668,0,1.5768,2.1197
0.0165,1.6508,0,1.5771,2.1178
0.0201,1.6614,0,1.5774,2.1161
0.0166,1.6747,0,1.5778,2.1143
0.0166,1.6889,0,1.5782,2.1127
0.02,1.6969,0,1.5787,2.111
0.0166,1.6898,0,1.5791,2.1094
0.0167,1.6907,0,1.5796,2.1077
0.0204,1.691,0,1.58,2.1061
0.0164,1.6976,0,1.5805,2.1045
0.02,1.7063,0,1.5809,2.1029
0.0167,1.7157,0,1.5815,2.1014
0.0165,1.7319,0,1.5821,2.1
0.0201,1.7243,0,1.5826,2.0985
0.0167,1.725,0,1.5832,2.097
0.0167,1.7285,0,1.5838,2.0956
0.02,1.7264,0,1.5843,2.0941
0.0166,1.7224,0,1.5849,2.0927
0.0201,1.7243,0,1.5854,2.0912
0.0166,1.7283,0,1.586,2.0898
0.0167,1.7361,0,1.5865,2.0884
0.02,1.7419,0,1.5872,2.0871
0.0166,1.7504,0,1.5878,2.0857
0.0166,1.7793,0,1.5885,2.0845
0.02,1.7922,0,1.5893,2.0834
0.0167,1.7997,0,1.5902,2.0823
0.0199,1.7599,0,1.5908,2.081
0.0167,1.7303,0,1.5914,2.0796
0.0167,1.7074,0,1.5918,2.0782
0.02,1.6998,0,1.5923,2.0767
0.0167,1.6679,0,1.5926,2.0751
0.0166,1.6084,0,1.5921,2.0733
0.0201,2.9897,1,1.5976,2.1336
0.0166,2.73,0,1.6021,2.1524
0.02,1.969,0,1.603,2.1517
0.0167,1.5687,0,1.5946,2.1494
0.0167,1.4255,0,1.5854,2.1465
0.02,1.4201,0,1.5789,2.1437
0.0166,1.4639,0,1.5751,2.141
0.0167,1.5209,0,1.574,2.1386
0.0201,1.5692,0,1.574,2.1364
0.0166,1.6277,0,1.5742,2.1344
0.02,1.6602,0,1.5745,2.1325
0.0167,1.6906,0,1.575,2.1308
0.0167,1.717,0,1.5755,2.1292
0.02,1.7714,0,1.5763,2.1278
0.0168,1.8417,0,1.5774,2.1266
0.0182,1.8814,0,1.5786,2.1257
0.0185,1.8393,0,1.5796,2.1245
0.0166,1.7535,0,1.5803,2.1231
0.02,1.6826,0,1.5807,2.1214
0.0165,1.6557,0,1.581,2.1195
0.0167,1.6532,0,1.5812,2.1177
0.02,1.6589,0,1.5815,2.1159
0.0167,1.6739,0,1.5819,2.1142
0.0166,1.6788,0,1.5823,2.1125
0.0202,1.6838,0,1.5827,2.1108
0.0165,1.7082,0,1.5832,2.1092
0.0201,1.7098,0,1.5837,2.1076
0.0166,1.7104,0,1.5842,2.1061
0.0166,1.7171,0,1.5847,2.1046
0.02,1.7193,0,1.5852,2.103
0.0167,1.7168,0,1.5857,2.1015
0.0167,1.7192,0,1.5863,2.1
0.02,1.7168,0,1.5868,2.0985
0.0167,1.716,0,1.5873,2.097
0.02,1.7222,0,1.5878,2.0956
0.0166,1.7308,0,1.5884,2.0941
0.0167,1.7369,0,1.5889,2.0927
0.0201,1.7455,0,1.5896,2.0914
0.0166,1.7679,0,1.5903,2.0901
0.0167,1.7916,0,1.591,2.0889
0.02,1.8191,0,1.5919,2.0879
0.0167,1.7859,0,1.5927,2.0867
0.02,1.7423,0,1.5933,2.0853
0.0168,1.7016,0,1.5937,2.0838
0.0166,1.6946,0,1.5941,2.0823
0.02,1.7021,0,1.5945,2.0808
0.0174,1.5807,0,1.5918,2.0789
0.016,2.0486,1,1.5936,2.0859
0.02,3.2309,0,1.6001,2.1517
0.0167,2.4325,0,1.6033,2.1528
0.02,1.7851,0,1.599,2.1513
0.0167,1.4943,0,1.5898,2.1488
0.0167,1.4235,0,1.582,2.1459
0.0201,1.4325,0,1.5763,2.1431
0.0167,1.4746,0,1.5731,2.1405
0.0167,1.5309,0,1.5724,2.1381
0.02,1.5888,0,1.5725,2.136
0.0166,1.6309,0,1.5727,2.134
0.02,1.658,0,1.573,2.1321
0.0167,1.6931,0,1.5735,2.1304
0.0167,1.7276,0,1.5741,2.1288
0.02,1.788,0,1.575,2.1275
0.0168,1.8603,0,1.5761,2.1264
0.0165,1.868,0,1.5772,2.1254
0.0201,1.8022,0,1.5781,2.1241
0.0165,1.7249,0,1.5787,2.1226
0.0201,1.6828,0,1.5791,2.1209
0.0166,1.6786,0,1.5795,2.1191
0.0167,1.6739,0,1.5798,2.1174
0.0201,1.6723,0,1.5802,2.1156
0.0167,1.6816,0,1.5806,2.1139
0.0167,1.6879,0,1.581,2.1123
0.02,1.6933,0,1.5815,2.1106
0.0178,1.6984,0,1.5819,2.109
0.0188,1.7098,0,1.5824,2.1074
0.0167,1.7201,0,1.583,2.1059
0.0166,1.7301,0,1.5835,2.1044
0.02,1.7204,0,1.5841,2.1029
0.0167,1.7269,0,1.5846,2.1015
0.02,1.7226,0,1.5852,2.1
0.0167,1.7212,0,1.5857,2.0985
0.0167,1.7207,0,1.5862,2.097
0.0201,1.7205,0,1.5868,2.0955
0.0166,1.7139,0,1.5873,2.094
0.0167,1.7215,0,1.5878,2.0926
0.02,1.7436,0,1.5884,2.0912
0.0166,1.777,0,1.5891,2.09
0.0166,1.7914,0,1.5899,2.0888
0.02,1.8125,0,1.5908,2.0877
0.0167,1.7674,0,1.5915,2.0865
0.02,1.7361,0,1.5921,2.0851
0.0168,1.7061,0,1.5925,2.0836
0.0166,1.6961,0,1.5929,2.0821
0.0201,1.6928,0,1.5933,2.0806
0.0176,1.5353,0,1.5883,2.0784
0.0178,2.3788,1,1.5914,2.1051
0.0181,3.1325,0,1.5974,2.1587
0.0165,2.2693,0,1.6,2.1591
0.02,1.6818,0,1.5929,2.1572
0.0166,1.4534,0,1.5834,2.1545
0.0168,1.4033,0,1.5754,2.1515
0.02,1.4355,0,1.5705,2.1487
0.0166,1.4886,0,1.5682,2.1461
0.018,1.5487,0,1.5682,2.1438
0.0188,1.598,0,1.5683,2.1417
0.0166,1.6373,0,1.5685,2.1397
0.02,1.6634,0,1.5689,2.1378
0.0167,1.6916,0,1.5694,2.1361
0.0167,1.7402,0,1.5701,2.1345
0.0201,1.7987,0,1.571,2.1332
0.0167,1.8671,0,1.5721,2.1321
0.0181,1.8638,0,1.5733,2.1311
0.0186,1.7813,0,1.5741,2.1297
0.0166,1.7049,0,1.5746,2.1281
0.02,1.6631,0,1.5749,2.1262
0.0166,1.6557,0,1.5753,2.1244
0.0167,1.663,0,1.5756,2.1226
0.02,1.6622,0,1.576,2.1208
0.0167,1.6717,0,1.5763,2.119
0.02,1.6912,0,1.5768,2.1173
0.0167,1.6879,0,1.5772,2.1156
0.0167,1.7096,0,1.5777,2.1141
0.0201,1.7136,0,1.5783,2.1125
0.0167,1.7279,0,1.5789,2.111
0.0166,1.7294,0,1.5794,2.1095
0.02,1.7267,0,1.58,2.108
0.0167,1.7356,0,1.5806,2.1065
0.0199,1.732,0,1.5812,2.105
0.0167,1.7275,0,1.5818,2.1036
0.0166,1.7261,0,1.5824,2.1021
0.0203,1.7223,0,1.5829,2.1006
0.0164,1.7308,0,1.5835,2.0991
0.0166,1.7434,0,1.5841,2.0978
0.0201,1.7509,0,1.5848,2.0964
0.0165,1.7697,0,1.5855,2.0951
0.02,1.7955,0,1.5863,2.0939
0.0167,1.8171,0,1.5872,2.0929
0.0166,1.7918,0,1.588,2.0917
0.02,1.7507,0,1.5887,2.0903
0.0168,1.7175,0,1.5892,2.0889
0.0179,1.6966,0,1.5896,2.0873
0.0188,1.7092,0,1.5901,2.0859
0.0179,1.6157,0,1.5894,2.084
0.0186,1.8647,0,1.5905,2.0831
0.0166,3.2674,1,1.5971,2.1543
0.0167,2.5652,0,1.6009,2.1581
0.02,1.8424,0,1.5976,2.1568
0.0167,1.5069,0,1.5881,2.1543
0.0167,1.4081,0,1.5793,2.1513
0.0207,1.4176,0,1.5731,2.1485
0.017,1.4631,0,1.5696,2.1458
0.0189,1.5239,0,1.5689,2.1433
0.0167,1.5865,0,1.569,2.1412
0.0166,1.6204,0,1.5692,2.1391
0.02,1.648,0,1.5695,2.1372
0.0167,1.6767,0,1.5699,2.1354
0.0166,1.7189,0,1.5705,2.1338
0.02,1.7753,0,1.5713,2.1323
0.0167,1.8528,0,1.5724,2.1313
0.0206,1.8688,0,1.5735,2.1302
0.0173,1.809,0,1.5745,2.129
0.0155,1.7434,0,1.5751,2.1274
0.0201,1.6988,0,1.5756,2.1258
0.0167,1.6741,0,1.576,2.124
0.02,1.6757,0,1.5764,2.1222
0.017,1.6794,0,1.5768,2.1205
0.0172,1.6905,0,1.5772,2.1188
0.0192,1.7007,0,1.5777,2.1172
0.0165,1.7041,0,1.5782,2.1156
0.0166,1.7117,0,1.5788,2.114
0.0202,1.7208,0,1.5793,2.1124
0.0177,1.7238,0,1.5799,2.1109
0.0155,1.7248,0,1.5804,2.1094
0.0206,1.7284,0,1.581,2.1079
0.0174,1.7133,0,1.5815,2.1064
0.0186,1.7181,0,1.5821,2.1048
0.0167,1.7196,0,1.5826,2.1033
0.0168,1.7136,0,1.5831,2.1018
0.0203,1.7182,0,1.5837,2.1003
0.0175,1.7262,0,1.5842,2.0988
0.0187,1.7386,0,1.5848,2.0974
0.0168,1.7428,0,1.5854,2.096
0.0166,1.7507,0,1.5861,2.0947
0.02,1.7566,0,1.5868,2.0933
0.0177,1.7683,0,1.5875,2.0921
0.0156,1.7788,0,1.5882,2.0908
0.0201,1.7985,0,1.589,2.0897
0.0167,1.7693,0,1.5898,2.0884
0.0184,1.7432,0,1.5904,2.0871
0.0183,1.7117,0,1.5908,2.0856
0.0167,1.711,0,1.5913,2.0841
0.02,1.7238,0,1.5918,2.0827
0.0166,1.5684,0,1.5882,2.0807
0.018,2.3703,1,1.5912,2.1062
0.0187,3.1557,0,1.5974,2.1612
0.0167,2.2868,0,1.6001,2.1617
0.0199,1.6877,0,1.5929,2.1599
0.0168,1.4488,0,1.5831,2.1571
0.0178,1.4083,0,1.5755,2.1541
0.0188,1.4404,0,1.5708,2.1513
0.0167,1.4968,0,1.5689,2.1488
0.0166,1.5612,0,1.5688,2.1465
0.0205,1.6054,0,1.569,2.1443
0.0174,1.6397,0,1.5693,2.1424
0.0187,1.6544,0,1.5696,2.1405
0.0167,1.6789,0,1.57,2.1386
0.0168,1.7196,0,1.5706,2.137
0.0204,1.7853,0,1.5714,2.1356
0.0161,1.8659,0,1.5726,2.1346
0.0185,1.8601,0,1.5737,2.1335
0.0183,1.7866,0,1.5746,2.1321
0.0167,1.7099,0,1.5751,2.1305
0.0202,1.6746,0,1.5755,2.1287
0.0175,1.6563,0,1.5758,2.1268
0.0156,1.6469,0,1.5761,2.1249
0.0201,1.6601,0,1.5764,2.1231
0.0168,1.6612,0,1.5767,2.1213
0.018,1.6779,0,1.5771,2.1196
0.0186,1.7062,0,1.5776,2.118
0.0167,1.7255,0,1.5782,2.1164
0.02,1.7384,0,1.5788,2.1149
0.0166,1.7427,0,1.5795,2.1135
0.0166,1.7409,0,1.5801,2.112
0.0201,1.724,0,1.5807,2.1105
0.0167,1.7118,0,1.5812,2.1089
0.0169,1.7078,0,1.5817,2.1074
0.0206,1.7097,0,1.5822,2.1058
0.0171,1.7136,0,1.5827,2.1043
0.0188,1.7247,0,1.5833,2.1028
0.0166,1.7251,0,1.5838,2.1013
0.0167,1.735,0,1.5844,2.0999
0.02,1.7318,0,1.585,2.0984
0.0171,1.734,0,1.5856,2.097
0.0162,1.7282,0,1.5861,2.0955
0.02,1.7295,0,1.5867,2.0941
0.0166,1.743,0,1.5873,2.0927
0.0202,1.7638,0,1.588,2.0914
0.0166,1.8033,0,1.5889,2.0903
0.0166,1.7904,0,1.5896,2.0891
0.02,1.7633,0,1.5903,2.0878
0.0167,1.738,0,1.5909,2.0865
0.0185,1.7132,0,1.5914,2.085
0.0181,1.7083,0,1.5918,2.0835
0.0167,1.6512,0,1.5921,2.0818
0.02,1.6354,0,1.5922,2.0801
0.0167,3.0671,1,1.598,2.1441
0.0179,2.6842,0,1.6023,2.1585
0.0189,1.9407,0,1.6024,2.1576
0.0166,1.556,0,1.5938,2.1553
0.0166,1.4375,0,1.5856,2.1525
0.0201,1.4437,0,1.5802,2.1497
0.0177,1.4848,0,1.5771,2.1471
0.0188,1.5311,0,1.5761,2.1447
0.0167,1.5563,0,1.5758,2.1423
0.0168,1.5777,0,1.5758,2.1401
0.0206,1.6012,0,1.5759,2.138
0.017,1.6351,0,1.5762,2.136
0.0191,1.692,0,1.5766,2.1343
0.0166,1.7696,0,1.5774,2.1329
0.0166,1.8509,0,1.5784,2.1318
0.0205,1.8942,0,1.5797,2.1308
0.0162,1.8435,0,1.5807,2.1297
0.0167,1.7452,0,1.5814,2.1282
0.02,1.6733,0,1.5817,2.1264
0.0169,1.6428,0,1.582,2.1245
0.0198,1.6392,0,1.5822,2.1226
0.0173,1.6608,0,1.5825,2.1208
0.0161,1.6745,0,1.5828,2.1191
0.0199,1.6986,0,1.5833,2.1174
0.0166,1.7164,0,1.5838,2.1158
0.0166,1.7256,0,1.5844,2.1143
0.02,1.7287,0,1.5849,2.1128
0.0167,1.7232,0,1.5855,2.1113
0.02,1.7148,0,1.586,2.1097
0.0167,1.7153,0,1.5865,2.1082
0.0166,1.7155,0,1.587,2.1066
0.0202,1.7351,0,1.5876,2.1052
0.0166,1.7416,0,1.5882,2.1037
0.0171,1.7438,0,1.5888,2.1023
0.0202,1.751,0,1.5894,2.101
0.0172,1.7502,0,1.5901,2.0996
0.0187,1.7466,0,1.5907,2.0982
0.0167,1.7292,0,1.5912,2.0967
0.0167,1.7233,0,1.5917,2.0953
0.0204,1.7214,0,1.5923,2.0938
0.0162,1.737,0,1.5928,2.0924
0.0172,1.7586,0,1.5935,2.0911
0.0198,1.7788,0,1.5942,2.0899
0.0165,1.8083,0,1.595,2.0888
0.0165,1.7823,0,1.5958,2.0876
0.02,1.7508,0,1.5964,2.0863
0.0167,1.724,0,1.5969,2.0848
0.02,1.6988,0,1.5973,2.0833
0.0167,1.6937,0,1.5977,2.0818
0.0183,1.5584,0,1.5937,2.0797
0.0184,2.09,1,1.5957,2.0895
0.0166,3.1861,0,1.6019,2.1519
0.0166,2.398,0,1.605,2.1528
0.0201,1.7736,0,1.6006,2.1513
0.0173,1.5068,0,1.5922,2.1488
0.0193,1.4342,0,1.5848,2.146
0.0167,1.4458,0,1.5795,2.1433
0.0168,1.479,0,1.5762,2.1407
0.02,1.5292,0,1.5752,2.1383
0.0167,1.5817,0,1.5752,2.1361
0.0167,1.6188,0,1.5754,2.1341
0.02,1.6572,0,1.5757,2.1322
0.0165,1.7026,0,1.5762,2.1305
0.0202,1.7569,0,1.5769,2.129
0.0178,1.8205,0,1.5779,2.1278
0.0154,1.8776,0,1.5791,2.1268
0.0201,1.8771,0,1.5802,2.1259
0.0168,1.7955,0,1.5811,2.1246
0.0198,1.7096,0,1.5816,2.1229
0.0167,1.6745,0,1.5819,2.1212
0.0167,1.6693,0,1.5823,2.1194
0.0202,1.6903,0,1.5827,2.1177
0.0168,1.6974,0,1.5832,2.1161
0.0179,1.703,0,1.5836,2.1145
0.0185,1.7081,0,1.5841,2.1129
0.0167,1.7098,0,1.5846,2.1113
0.02,1.7071,0,1.5851,2.1097
0.0167,1.7095,0,1.5856,2.1081
0.0178,1.7135,0,1.5861,2.1066
0.019,1.7181,0,1.5866,2.1051
0.0165,1.7197,0,1.5871,2.1035
0.0172,1.7169,0,1.5876,2.102
0.0197,1.7225,0,1.5882,2.1005
0.0165,1.7276,0,1.5887,2.0991
0.0167,1.7326,0,1.5893,2.0976
0.02,1.7147,0,1.5898,2.0961
0.017,1.7153,0,1.5902,2.0947
0.0198,1.7187,0,1.5908,2.0932
0.0176,1.7199,0,1.5913,2.0917
0.0156,1.73,0,1.5918,2.0903
0.02,1.7464,0,1.5924,2.0889
0.0167,1.7454,0,1.593,2.0876
0.018,1.7385,0,1.5936,2.0862
0.0185,1.7656,0,1.5943,2.085
0.0167,1.7648,0,1.5949,2.0837
0.02,1.7971,0,1.5957,2.0826
0.0169,1.7623,0,1.5964,2.0813
0.0164,1.7409,0,1.5969,2.08
0.0201,1.7207,0,1.5974,2.0786
0.0166,1.7205,0,1.5979,2.0772
0.017,1.7205,0,1.5984,2.0758
0.0202,1.5575,0,1.5939,2.0738
0.0174,2.409,1,1.5971,2.1019
0.0187,3.0806,0,1.6029,2.1522
0.0166,2.226,0,1.6054,2.1525
0.0167,1.6706,0,1.5981,2.1506
0.0206,1.4464,0,1.5882,2.1478
0.0164,1.4173,0,1.581,2.1449
0.0168,1.4499,0,1.5764,2.1422
0.0196,1.513,0,1.5751,2.1397
0.0169,1.5698,0,1.575,2.1375
0.0198,1.6083,0,1.5752,2.1354
0.0177,1.6342,0,1.5754,2.1335
0.0156,1.6558,0,1.5757,2.1316
0.0201,1.6924,0,1.5762,2.1299
0.0167,1.7371,0,1.5768,2.1283
0.0187,1.8075,0,1.5777,2.1271
0.018,1.8896,0,1.5789,2.1261
0.0166,1.8843,0,1.5801,2.1252
0.02,1.8044,0,1.581,2.1239
0.0175,1.7158,0,1.5815,2.1223
0.0163,1.6668,0,1.5819,2.1206
0.0195,1.6471,0,1.5821,2.1187
0.0167,1.6471,0,1.5824,2.1168
0.02,1.6569,0,1.5827,2.115
0.0166,1.6667,0,1.583,2.1133
0.0168,1.6862,0,1.5834,2.1116
0.0201,1.709,0,1.5839,2.11
0.0165,1.7297,0,1.5845,2.1085
0.0167,1.7333,0,1.5851,2.1071
0.0204,1.7345,0,1.5856,2.1056
0.0172,1.7153,0,1.5862,2.1041
0.0157,1.709,0,1.5866,2.1025
0.02,1.7003,0,1.5871,2.1009
0.0167,1.7039,0,1.5875,2.0994
0.0205,1.7084,0,1.588,2.0979
0.0162,1.7229,0,1.5885,2.0964
0.0167,1.731,0,1.5891,2.095
0.0201,1.7403,0,1.5897,2.0936
0.0167,1.7433,0,1.5903,2.0922
0.0186,1.7444,0,1.5909,2.0908
0.0179,1.7447,0,1.5915,2.0895
0.0167,1.735,0,1.5921,2.0881
0.0199,1.7318,0,1.5926,2.0867
0.0167,1.7242,0,1.5931,2.0853
0.0178,1.7445,0,1.5937,2.0839
0.0189,1.7773,0,1.5944,2.0827
0.0166,1.8111,0,1.5953,2.0817
0.0166,1.793,0,1.5961,2.0805
0.0212,1.7609,0,1.5967,2.0793
0.0155,1.7241,0,1.5972,2.0779
0.02,1.7021,0,1.5976,2.0764
0.0166,1.698,0,1.598,2.0749
0.0167,1.5924,0,1.5959,2.073
0.0206,1.9091,1,1.5972,2.0724
0.0172,3.2691,0,1.6037,2.1433
0.0156,2.5299,0,1.6074,2.1454
0.0202,1.8404,0,1.6043,2.1442
0.0167,1.5193,0,1.5953,2.1418
0.0203,1.4318,0,1.5874,2.139
0.0168,1.4385,0,1.5816,2.1363
0.0163,1.4798,0,1.5784,2.1337
0.0199,1.5229,0,1.577,2.1313
0.0167,1.5731,0,1.577,2.1291
0.0166,1.6159,0,1.5771,2.1271
0.0201,1.6498,0,1.5774,2.1252
0.0166,1.6773,0,1.5778,2.1235
0.0202,1.7224,0,1.5783,2.1219
0.0167,1.7993,0,1.5792,2.1206
0.0179,1.8836,0,1.5804,2.1197
0.0187,1.8921,0,1.5816,2.1188
0.0167,1.8102,0,1.5825,2.1176
0.02,1.7113,0,1.583,2.116
0.0167,1.6587,0,1.5833,2.1142
0.0177,1.6412,0,1.5836,2.1123
0.0192,1.6517,0,1.5838,2.1105
0.0165,1.6551,0,1.5841,2.1088
0.0169,1.6791,0,1.5845,2.1071
0.0199,1.6871,0,1.5849,2.1054
0.0181,1.6995,0,1.5853,2.1038
0.0151,1.7004,0,1.5858,2.1022
0.02,1.7007,0,1.5862,2.1007
0.0166,1.7139,0,1.5867,2.0992
0.0204,1.7215,0,1.5873,2.0977
0.0171,1.7306,0,1.5878,2.0962
0.0158,1.7303,0,1.5884,2.0948
0.0202,1.7368,0,1.589,2.0934
0.0167,1.7389,0,1.5896,2.092
0.0177,1.7396,0,1.5901,2.0906
0.0189,1.7431,0,1.5907,2.0893
0.0167,1.7345,0,1.5913,2.0879
0.02,1.7349,0,1.5919,2.0865
0.0166,1.7383,0,1.5924,2.0851
0.0182,1.7459,0,1.593,2.0838
0.0185,1.7517,0,1.5937,2.0825
0.0166,1.7635,0,1.5943,2.0812
0.0168,1.7576,0,1.595,2.08
0.0206,1.7556,0,1.5956,2.0787
0.0171,1.781,0,1.5963,2.0775
0.0188,1.7797,0,1.597,2.0764
0.0167,1.7793,0,1.5978,2.0752
0.0167,1.7433,0,1.5983,2.0739
0.0205,1.715,0,1.5988,2.0725
0.0162,1.7023,0,1.5992,2.071
0.0166,1.7046,0,1.5996,2.0696
0.0205,1.6826,0,1.5999,2.0681
0.0163,1.597,0,1.5983,2.0662
0.0201,2.9892,1,1.6038,2.127
0.017,2.8341,0,1.6086,2.152
0.0161,2.0069,0,1.6096,2.1514
0.0201,1.5585,0,1.5997,2.1491
0.0167,1.4123,0,1.5898,2.1462
0.0167,1.4092,0,1.5826,2.1433
0.0201,1.457,0,1.5786,2.1406
0.0166,1.5088,0,1.5767,2.1381
0.02,1.5652,0,1.5767,2.1359
0.0168,1.6068,0,1.5768,2.1338
0.0164,1.6337,0,1.577,2.1319
0.02,1.6654,0,1.5774,2.13
0.0166,1.7054,0,1.5779,2.1284
0.0167,1.761,0,1.5786,2.1269
0.02,1.8447,0,1.5796,2.1258
0.0178,1.8922,0,1.5809,2.1249
0.019,1.8494,0,1.5819,2.1238
0.0165,1.7536,0,1.5826,2.1224
0.0167,1.6826,0,1.583,2.1206
0.0203,1.6459,0,1.5832,2.1188
0.0164,1.6435,0,1.5835,2.1169
0.0167,1.6426,0,1.5837,2.1151
0.02,1.6456,0,1.5839,2.1132
0.0167,1.6597,0,1.5842,2.1114
0.02,1.6643,0,1.5845,2.1097
0.0167,1.6887,0,1.585,2.108
0.0167,1.7033,0,1.5854,2.1065
0.0201,1.7147,0,1.5859,2.1049
0.0167,1.7218,0,1.5865,2.1034
0.0184,1.7209,0,1.587,2.1019
0.0182,1.7075,0,1.5875,2.1004
0.0167,1.7031,0,1.5879,2.0988
0.02,1.7081,0,1.5884,2.0973
0.0166,1.7098,0,1.5889,2.0958
0.0179,1.7202,0,1.5894,2.0943
0.0189,1.7269,0,1.5899,2.0928
0.0166,1.7323,0,1.5905,2.0914
0.0185,1.7374,0,1.5911,2.09
0.0189,1.7424,0,1.5916,2.0887
0.016,1.7375,0,1.5922,2.0873
0.0199,1.7326,0,1.5928,2.0859
0.0167,1.7278,0,1.5933,2.0845
0.0167,1.7229,0,1.5938,2.0831
0.0204,1.7343,0,1.5944,2.0817
0.0172,1.7641,0,1.595,2.0805
0.0158,1.8002,0,1.5958,2.0794
0.0201,1.7829,0,1.5966,2.0782
0.0167,1.7543,0,1.5972,2.0769
0.0203,1.7187,0,1.5977,2.0755
0.0163,1.697,0,1.598,2.0741
0.0166,1.6931,0,1.5984,2.0726
0.0201,1.5614,0,1.5946,2.0706
0.0167,2.0324,1,1.5964,2.0774
0.0167,3.2288,0,1.6028,2.1436
0.0201,2.4317,0,1.606,2.1448
0.0166,1.7816,0,1.6014,2.1433
0.02,1.4899,0,1.5919,2.1408
0.0167,1.4188,0,1.5839,2.1379
0.0165,1.4211,0,1.5775,2.1351
0.0201,1.4577,0,1.5735,2.1325
0.0167,1.509,0,1.5718,2.13
0.0168,1.5522,0,1.5718,2.1278
0.0199,1.5959,0,1.5719,2.1257
0.0166,1.6301,0,1.5721,2.1237
0.0202,1.6708,0,1.5725,2.122
0.0166,1.7267,0,1.5731,2.1204
0.0167,1.7975,0,1.574,2.1191
0.0207,1.8764,0,1.5751,2.1182
0.0173,1.8963,0,1.5764,2.1173
0.0187,1.8084,0,1.5773,2.1161
0.0167,1.7139,0,1.5779,2.1145
0.0167,1.6596,0,1.5782,2.1128
0.02,1.6415,0,1.5784,2.1109
0.0174,1.655,0,1.5787,2.1091
0.0159,1.6726,0,1.5791,2.1074
0.0201,1.6882,0,1.5795,2.1058
0.0166,1.7064,0,1.58,2.1042
0.0199,1.7125,0,1.5805,2.1027
0.0175,1.7048,0,1.581,2.1011
0.0158,1.6989,0,1.5815,2.0995
0.0201,1.7002,0,1.582,2.098
0.0167,1.6974,0,1.5824,2.0964
0.0187,1.7095,0,1.5829,2.0949
0.0181,1.7168,0,1.5834,2.0934
0.0167,1.716,0,1.5839,2.0919
0.0199,1.7255,0,1.5845,2.0905
0.0167,1.7286,0,1.5851,2.089
0.0176,1.7232,0,1.5856,2.0876
0.019,1.7213,0,1.5861,2.0862
0.0167,1.724,0,1.5867,2.0848
0.0167,1.7314,0,1.5872,2.0834
0.02,1.7339,0,1.5878,2.082
0.0167,1.7379,0,1.5884,2.0806
0.0167,1.7426,0,1.589,2.0793
0.02,1.7571,0,1.5897,2.0781
0.0166,1.775,0,1.5904,2.0769
0.0202,1.8038,0,1.5912,2.0758
0.0164,1.7775,0,1.592,2.0746
0.0166,1.7492,0,1.5926,2.0734
0.0201,1.7137,0,1.5931,2.0719
0.0166,1.6954,0,1.5935,2.0705
0.0181,1.6991,0,1.5939,2.069
0.0187,1.5862,0,1.5916,2.0671
0.0176,1.9494,1,1.593,2.0689
0.0192,3.1979,0,1.5993,2.1352
0.0165,2.4605,0,1.6027,2.1365
0.0185,1.8042,0,1.599,2.1352
0.0182,1.5072,0,1.5901,2.1327
0.0167,1.4311,0,1.5826,2.13
0.0167,1.4415,0,1.5772,2.1273
0.02,1.4808,0,1.5741,2.1247
0.0168,1.5363,0,1.5736,2.1224
0.02,1.5743,0,1.5736,2.1203
0.0167,1.6229,0,1.5738,2.1183
0.0167,1.6521,0,1.5741,2.1165
0.0205,1.6944,0,1.5746,2.1148
0.0161,1.7476,0,1.5753,2.1134
0.02,1.8272,0,1.5763,2.1123
0.0167,1.8929,0,1.5775,2.1114
0.0166,1.8887,0,1.5787,2.1105
0.0201,1.7993,0,1.5796,2.1093
0.0167,1.7207,0,1.5801,2.1078
0.0185,1.6684,0,1.5805,2.1061
0.0185,1.6509,0,1.5808,2.1043
0.0168,1.6549,0,1.5811,2.1025
0.0195,1.6595,0,1.5814,2.1008
0.0167,1.6773,0,1.5817,2.0991
0.0167,1.68,0,1.5821,2.0975
0.02,1.6874,0,1.5825,2.0959
0.0167,1.6964,0,1.583,2.0943
0.0166,1.7026,0,1.5835,2.0928
0.0202,1.7112,0,1.584,2.0913
0.0167,1.7206,0,1.5845,2.0898
0.0198,1.7205,0,1.585,2.0884
0.0168,1.7205,0,1.5856,2.0869
0.0182,1.7074,0,1.586,2.0855
0.0184,1.7161,0,1.5865,2.084
0.0167,1.7222,0,1.5871,2.0826
0.0166,1.7308,0,1.5876,2.0812
0.0201,1.7337,0,1.5882,2.0798
0.0176,1.7411,0,1.5888,2.0785
0.0158,1.7501,0,1.5894,2.0772
0.02,1.7564,0,1.5901,2.076
0.0167,1.7846,0,1.5909,2.0748
0.0198,1.8135,0,1.5917,2.0738
0.0177,1.7971,0,1.5925,2.0727
0.0156,1.7558,0,1.5932,2.0715
0.0201,1.7159,0,1.5937,2.0701
0.0167,1.6994,0,1.5941,2.0686
0.0167,1.7102,0,1.5945,2.0672
0.0207,1.6127,0,1.5935,2.0654
0.0158,1.8866,1,1.5947,2.0647
0.0201,3.1899,0,1.6009,2.1319
0.017,2.484,0,1.6044,2.1332
0.0177,1.8283,0,1.6016,2.132
0.0188,1.5218,0,1.5931,2.1297
0.0166,1.4164,0,1.5843,2.1269
0.02,1.4203,0,1.5779,2.1241
0.0167,1.4803,0,1.5751,2.1216
0.0179,1.5394,0,1.5748,2.1193
0.0187,1.5884,0,1.5748,2.1172
0.0167,1.6373,0,1.5751,2.1153
0.0169,1.6797,0,1.5755,2.1136
0.0203,1.7134,0,1.576,2.112
0.0173,1.7539,0,1.5767,2.1106
0.019,1.8098,0,1.5776,2.1095
0.0176,1.8871,0,1.5789,2.1086
0.0156,1.8835,0,1.5801,2.1077
0.02,1.8074,0,1.5809,2.1065
0.0167,1.7103,0,1.5815,2.105
0.0166,1.6617,0,1.5818,2.1032
0.02,1.652,0,1.582,2.1015
0.0169,1.6487,0,1.5823,2.0997
0.0198,1.6509,0,1.5826,2.0979
0.0172,1.6516,0,1.5828,2.0962
0.0161,1.6649,0,1.5832,2.0945
0.02,1.6791,0,1.5835,2.0929
0.0166,1.6904,0,1.584,2.0913
0.0176,1.7039,0,1.5844,2.0898
0.0191,1.7182,0,1.585,2.0883
0.0167,1.7295,0,1.5855,2.0869
0.02,1.73,0,1.5861,2.0855
0.0167,1.7236,0,1.5866,2.0841
0.0178,1.7215,0,1.5872,2.0827
0.0189,1.7143,0,1.5877,2.0812
0.0167,1.7119,0,1.5881,2.0798
0.0168,1.7078,0,1.5886,2.0783
0.0204,1.7195,0,1.5891,2.0769
0.0173,1.7331,0,1.5897,2.0755
0.0189,1.7442,0,1.5903,2.0742
0.0167,1.7609,0,1.591,2.073
0.0168,1.7698,0,1.5917,2.0718
0.0204,1.789,0,1.5924,2.0707
0.0162,1.815,0,1.5933,2.0697
0.0166,1.7878,0,1.5941,2.0686
0.02,1.7527,0,1.5947,2.0674
0.0168,1.7214,0,1.5952,2.066
0.0199,1.7077,0,1.5956,2.0646
0.0174,1.726,0,1.5961,2.0633
0.0159,1.6017,0,1.5942,2.0615
0.02,2.0979,1,1.5961,2.0717
0.0168,3.2571,0,1.6027,2.1386
0.0182,2.4217,0,1.6059,2.1397
0.0186,1.7652,0,1.6005,2.1382
0.0167,1.4747,0,1.5905,2.1356
0.02,1.4072,0,1.5821,2.1328
0.0166,1.4401,0,1.5771,2.1301
0.0178,1.4966,0,1.5749,2.1276
0.0188,1.5611,0,1.5749,2.1254
0.0167,1.6087,0,1.575,2.1233
0.0169,1.6506,0,1.5753,2.1215
0.0198,1.6776,0,1.5757,2.1197
0.0183,1.7029,0,1.5762,2.1181
0.0183,1.7504,0,1.5769,2.1167
0.0166,1.8184,0,1.5779,2.1155
0.0167,1.8899,0,1.5791,2.1146
0.0208,1.904,0,1.5803,2.1138
0.0159,1.8305,0,1.5813,2.1127
0.0167,1.7441,0,1.582,2.1112
0.02,1.6892,0,1.5824,2.1096
0.0167,1.6709,0,1.5827,2.1079
0.0204,1.6616,0,1.583,2.1061
0.0168,1.6617,0,1.5834,2.1044
0.0171,1.665,0,1.5837,2.1026
0.0191,1.6791,0,1.584,2.101
0.0167,1.7002,0,1.5845,2.0994
0.0166,1.7169,0,1.585,2.0979
0.0201,1.7388,0,1.5856,2.0965
0.0166,1.7396,0,1.5862,2.0951
0.02,1.7464,0,1.5869,2.0937
0.0167,1.7421,0,1.5875,2.0924
0.0185,1.7277,0,1.588,2.0909
0.0183,1.7196,0,1.5885,2.0895
0.0167,1.7071,0,1.589,2.088
0.0165,1.7127,0,1.5895,2.0865
0.0209,1.7244,0,1.59,2.0851
0.0173,1.738,0,1.5906,2.0837
0.0186,1.7459,0,1.5912,2.0824
0.0166,1.7517,0,1.5918,2.0811
0.0168,1.7537,0,1.5925,2.0798
0.02,1.7413,0,1.593,2.0785
0.0175,1.7404,0,1.5936,2.0772
0.0159,1.7695,0,1.5943,2.0759
0.02,1.7759,0,1.595,2.0748
0.0167,1.7976,0,1.5958,2.0737
0.0205,1.7689,0,1.5965,2.0725
0.016,1.7627,0,1.5972,2.0713
0.0167,1.7475,0,1.5977,2.07
0.02,1.736,0,1.5983,2.0687
0.0168,1.7061,0,1.5987,2.0673
0.0166,1.582,0,1.5959,2.0654
0.0201,2.8701,1,1.6009,2.1197
0.0167,2.8987,0,1.606,2.1507
0.02,2.048,0,1.6077,2.1503
0.0166,1.5885,0,1.5988,2.1481
0.0182,1.4353,0,1.5897,2.1453
0.0185,1.4332,0,1.5835,2.1425
0.0166,1.4683,0,1.5796,2.1399
0.0167,1.5158,0,1.578,2.1374
0.0204,1.5545,0,1.5777,2.1351
0.0162,1.5934,0,1.5778,2.133
0.02,1.6227,0,1.578,2.131
0.0167,1.652,0,1.5783,2.1291
0.0184,1.6878,0,1.5787,2.1274
0.0184,1.7617,0,1.5794,2.126
0.0178,1.845,0,1.5804,2.1249
0.0187,1.9086,0,1.5817,2.124
0.0167,1.8809,0,1.5829,2.1231
0.0167,1.7772,0,1.5837,2.1217
0.0202,1.6937,0,1.5841,2.12
0.0172,1.6398,0,1.5843,2.1182
0.016,1.6317,0,1.5845,2.1162
0.0201,1.6322,0,1.5847,2.1143
0.0183,1.6552,0,1.585,2.1125
0.0183,1.6759,0,1.5853,2.1108
0.0166,1.6925,0,1.5857,2.1092
0.0167,1.7014,0,1.5862,2.1076
0.02,1.7173,0,1.5867,2.1061
0.0167,1.7194,0,1.5872,2.1045
0.0184,1.7103,0,1.5877,2.103
0.0184,1.7008,0,1.5882,2.1014
0.0166,1.6943,0,1.5886,2.0998
0.02,1.6987,0,1.589,2.0983
0.0167,1.7002,0,1.5894,2.0967
0.0165,1.7137,0,1.5899,2.0952
0.0201,1.728,0,1.5905,2.0938
0.0167,1.7392,0,1.5911,2.0924
0.0167,1.7365,0,1.5916,2.091
0.0201,1.7356,0,1.5922,2.0896
0.0165,1.7287,0,1.5927,2.0882
0.0201,1.7199,0,1.5932,2.0867
0.0171,1.717,0,1.5937,2.0853
0.0175,1.7225,0,1.5942,2.0838
0.0188,1.7244,0,1.5947,2.0824
0.0175,1.7674,0,1.5954,2.0812
0.0156,1.7947,0,1.5962,2.0801
0.02,1.8071,0,1.597,2.079
0.0167,1.7591,0,1.5976,2.0777
0.02,1.7268,0,1.5982,2.0764
0.0167,1.6965,0,1.5985,2.0749
0.0166,1.6831,0,1.5989,2.0733
0.0201,1.6656,0,1.5991,2.0717
0.0168,1.549,0,1.5951,2.0697
0.0166,2.8852,1,1.6002,2.1253
0.02,2.8679,0,1.6051,2.1541
0.0167,2.0312,0,1.6068,2.1536
0.02,1.5731,0,1.5974,2.1513
0.0167,1.4139,0,1.5874,2.1484
0.0166,1.3934,0,1.5794,2.1455
0.0201,1.4224,0,1.5738,2.1426
0.0167,1.4777,0,1.571,2.14
0.0185,1.5385,0,1.5708,2.1377
0.0185,1.5881,0,1.5709,2.1355
0.0163,1.6242,0,1.5711,2.1335
0.02,1.659,0,1.5714,2.1316
0.0166,1.6902,0,1.5719,2.1299
0.0167,1.7429,0,1.5726,2.1284
0.02,1.8224,0,1.5735,2.1272
0.0178,1.875,0,1.5747,2.1262
0.0156,1.8436,0,1.5758,2.1251
0.0201,1.7452,0,1.5764,2.1236
0.0165,1.6896,0,1.5769,2.1219
0.0204,1.6548,0,1.5772,2.1201
0.0163,1.6529,0,1.5775,2.1182
0.0167,1.6556,0,1.5778,2.1164
0.0201,1.676,0,1.5782,2.1147
0.0167,1.6828,0,1.5786,2.113
0.018,1.6851,0,1.579,2.1113
0.0188,1.6924,0,1.5794,2.1097
0.0165,1.6883,0,1.5799,2.108
0.0201,1.6967,0,1.5803,2.1064
0.0179,1.693,0,1.5808,2.1048
0.0154,1.7048,0,1.5813,2.1032
0.0201,1.7185,0,1.5818,2.1017
0.0167,1.723,0,1.5823,2.1002
0.0167,1.7278,0,1.5829,2.0988
0.0206,1.7262,0,1.5835,2.0973
0.0174,1.7158,0,1.584,2.0958
0.0187,1.7091,0,1.5845,2.0943
0.0167,1.7101,0,1.585,2.0928
0.0166,1.7203,0,1.5855,2.0913
0.0202,1.7301,0,1.5861,2.0899
0.0172,1.74,0,1.5867,2.0885
0.0169,1.74,0,1.5873,2.0872
0.0189,1.753,0,1.5879,2.0859
0.0167,1.7736,0,1.5887,2.0846
0.02,1.7838,0,1.5894,2.0835
0.0175,1.7872,0,1.5902,2.0823
0.0158,1.7492,0,1.5908,2.081
0.0201,1.7105,0,1.5913,2.0795
0.0166,1.7041,0,1.5917,2.0781
0.0182,1.7117,0,1.5922,2.0766
0.0184,1.6687,0,1.5925,2.075
0.0167,1.6771,0,1.5928,2.0735
0.02,3.0973,1,1.5987,2.1387
0.0166,2.6616,0,1.6029,2.1515
0.0167,1.9234,0,1.6025,2.1506
0.0201,1.547,0,1.5936,2.1482
0.0167,1.428,0,1.585,2.1454
0.0167,1.4242,0,1.5787,2.1426
0.0206,1.4653,0,1.5749,2.1399
0.0172,1.5213,0,1.5738,2.1375
0.0189,1.5791,0,1.5738,2.1353
0.0166,1.6245,0,1.574,2.1333
0.0167,1.6559,0,1.5744,2.1314
0.0204,1.6696,0,1.5747,2.1296
0.0163,1.7035,0,1.5752,2.128
0.0166,1.7637,0,1.576,2.1265
0.0201,1.8489,0,1.5771,2.1254
0.018,1.8936,0,1.5783,2.1245
0.0186,1.8466,0,1.5793,2.1234
0.0176,1.7462,0,1.58,2.122
0.0157,1.6867,0,1.5804,2.1203
0.02,1.6538,0,1.5807,2.1184
0.0167,1.6428,0,1.581,2.1166
0.0183,1.6392,0,1.5812,2.1147
0.0185,1.6575,0,1.5815,2.1129
0.0166,1.6734,0,1.5818,2.1112
0.02,1.6885,0,1.5823,2.1095
0.0166,1.7,0,1.5827,2.1079
0.0179,1.7071,0,1.5832,2.1063
0.0188,1.7127,0,1.5837,2.1048
0.0167,1.7179,0,1.5842,2.1033
0.0167,1.7228,0,1.5848,2.1018
0.02,1.7115,0,1.5853,2.1003
0.018,1.7044,0,1.5857,2.0987
0.0187,1.6955,0,1.5862,2.0971
0.0166,1.7024,0,1.5866,2.0956
0.0167,1.7111,0,1.5871,2.0941
0.0205,1.7271,0,1.5877,2.0926
0.0172,1.7389,0,1.5883,2.0912
0.0189,1.7396,0,1.5889,2.0899
0.0167,1.7692,0,1.5896,2.0886
0.0166,1.7888,0,1.5903,2.0874
0.0201,1.7986,0,1.5912,2.0863
0.0166,1.7595,0,1.5918,2.085
0.0167,1.7269,0,1.5924,2.0836
0.0203,1.6933,0,1.5928,2.0821
0.0165,1.6951,0,1.5932,2.0806
0.02,1.6859,0,1.5935,2.079
0.0171,1.5362,0,1.5886,2.0769
0.0161,2.604,1,1.5926,2.1164
0.02,2.9566,0,1.598,2.1556
0.0166,2.1325,0,1.6001,2.1555
0.0168,1.6362,0,1.5927,2.1534
0.02,1.4447,0,1.5835,2.1507
0.0166,1.4135,0,1.5763,2.1478
0.0199,1.4389,0,1.5714,2.145
0.0175,1.506,0,1.57,2.1425
0.0158,1.5675,0,1.57,2.1402
0.02,1.6173,0,1.5702,2.1382
0.0166,1.66,0,1.5705,2.1363
0.0169,1.6807,0,1.571,2.1345
0.0198,1.7072,0,1.5715,2.1328
0.0177,1.7551,0,1.5722,2.1314
0.019,1.82,0,1.5732,2.1301
0.0166,1.8742,0,1.5744,2.1291
0.0167,1.8434,0,1.5754,2.128
0.0202,1.7679,0,1.5762,2.1266
0.0163,1.7167,0,1.5767,2.125
0.0166,1.6801,0,1.5771,2.1233
0.02,1.6711,0,1.5775,2.1215
0.0167,1.6779,0,1.5779,2.1197
0.0199,1.69,0,1.5783,2.1181
0.0179,1.6907,0,1.5788,2.1164
0.0156,1.691,0,1.5792,2.1147
0.02,1.7008,0,1.5797,2.1131
0.0167,1.7139,0,1.5802,2.1115
0.018,1.728,0,1.5808,2.11
0.0185,1.7295,0,1.5814,2.1085
0.0166,1.7234,0,1.5819,2.107
0.02,1.728,0,1.5825,2.1055
0.0166,1.7197,0,1.583,2.104
0.0179,1.7169,0,1.5836,2.1025
0.0188,1.7095,0,1.5841,2.101
0.0166,1.707,0,1.5845,2.0994
0.0167,1.716,0,1.5851,2.0979
0.02,1.7287,0,1.5856,2.0965
0.018,1.733,0,1.5862,2.095
0.0186,1.7474,0,1.5868,2.0937
0.0167,1.7881,0,1.5876,2.0925
0.0167,1.8147,0,1.5885,2.0914
0.02,1.7942,0,1.5893,2.0902
0.0167,1.7515,0,1.59,2.0889
0.0167,1.7145,0,1.5904,2.0874
0.0199,1.6891,0,1.5908,2.0859
0.0182,1.6937,0,1.5912,2.0843
0.0185,1.6464,0,1.5915,2.0826
0.0166,1.712,0,1.5919,2.0812
0.0167,3.1676,1,1.5981,2.1494
0.02,2.6916,0,1.6024,2.1623
0.0169,1.9236,0,1.6014,2.1614
0.0165,1.534,0,1.5919,2.1589
0.02,1.4269,0,1.5836,2.156
0.0167,1.4141,0,1.5767,2.1531
0.02,1.4586,0,1.5728,2.1504
0.018,1.5126,0,1.5714,2.1479
0.0166,1.5762,0,1.5714,2.1457
0.0186,1.6267,0,1.5717,2.1436
0.0167,1.6566,0,1.572,2.1417
0.02,1.6861,0,1.5724,2.1399
0.0167,1.722,0,1.573,2.1383
0.0166,1.7666,0,1.5738,2.1368
0.0202,1.8433,0,1.5748,2.1357
0.0166,1.882,0,1.5761,2.1347
0.0167,1.8264,0,1.577,2.1335
0.0201,1.746,0,1.5777,2.132
0.0166,1.6833,0,1.5781,2.1302
0.0199,1.6624,0,1.5784,2.1284
0.0167,1.6587,0,1.5788,2.1265
0.0166,1.6608,0,1.5791,2.1247
0.0201,1.6712,0,1.5794,2.1229
0.0167,1.678,0,1.5798,2.1212
0.018,1.6867,0,1.5802,2.1195
0.0186,1.6896,0,1.5807,2.1178
0.0167,1.6971,0,1.5811,2.1161
0.0201,1.7192,0,1.5817,2.1146
0.0165,1.733,0,1.5823,2.1131
0.0167,1.7377,0,1.5829,2.1116
0.02,1.7425,0,1.5835,2.1102
0.0168,1.7278,0,1.5841,2.1087
0.0167,1.7229,0,1.5846,2.1071
0.02,1.718,0,1.5851,2.1056
0.0167,1.7164,0,1.5856,2.1041
0.0166,1.7223,0,1.5862,2.1026
0.02,1.7276,0,1.5867,2.1011
0.0176,1.7391,0,1.5873,2.0997
0.0189,1.7462,0,1.588,2.0983
0.0167,1.7616,0,1.5886,2.097
0.0167,1.783,0,1.5894,2.0958
0.02,1.7999,0,1.5902,2.0946
0.0167,1.7697,0,1.5909,2.0933
0.0167,1.7336,0,1.5915,2.0919
0.02,1.702,0,1.5919,2.0904
0.0167,1.6915,0,1.5923,2.0888
0.02,1.6977,0,1.5927,2.0873
0.0166,1.6184,0,1.5923,2.0855
0.0167,1.8754,0,1.5934,2.0846
0.02,3.2449,1,1.5999,2.1543
0.0167,2.5479,0,1.6036,2.1574
0.0166,1.8236,0,1.5995,2.1561
0.02,1.4941,0,1.5895,2.1535
0.0166,1.4006,0,1.5805,2.1506
0.0201,1.4053,0,1.5737,2.1477
0.0167,1.4622,0,1.5703,2.145
0.0166,1.5268,0,1.5698,2.1425
0.0201,1.581,0,1.5698,2.1403
0.0167,1.6251,0,1.57,2.1383
0.02,1.6593,0,1.5704,2.1364
0.0167,1.6838,0,1.5708,2.1347
0.0167,1.7212,0,1.5714,2.133
0.02,1.7728,0,1.5722,2.1316
0.0173,1.8487,0,1.5733,2.1305
0.0159,1.874,0,1.5745,2.1295
0.0201,1.8237,0,1.5754,2.1283
0.0166,1.7386,0,1.5761,2.1268
0.02,1.6874,0,1.5765,2.1251
0.0167,1.6573,0,1.5768,2.1232
0.0167,1.6538,0,1.5771,2.1214
0.0201,1.6526,0,1.5774,2.1196
0.0167,1.6587,0,1.5777,2.1177
0.0167,1.6705,0,1.5781,2.116
0.02,1.6973,0,1.5786,2.1144
0.0167,1.7062,0,1.5791,2.1128
0.02,1.7189,0,1.5796,2.1112
0.0165,1.7167,0,1.5802,2.1097
0.0167,1.7159,0,1.5807,2.1081
0.02,1.7157,0,1.5812,2.1066
0.0167,1.7058,0,1.5817,2.105
0.0167,1.7025,0,1.5822,2.1034
0.0201,1.7014,0,1.5827,2.1019
0.0166,1.6978,0,1.5831,2.1003
0.0167,1.7096,0,1.5836,2.0987
0.0207,1.7136,0,1.5841,2.0972
0.0169,1.7377,0,1.5847,2.0958
0.019,1.7392,0,1.5853,2.0944
0.0166,1.7495,0,1.586,2.0931
0.0167,1.7497,0,1.5866,2.0917
0.0201,1.766,0,1.5873,2.0904
0.0167,1.7682,0,1.588,2.0892
0.0167,1.7885,0,1.5888,2.088
0.02,1.7692,0,1.5895,2.0867
0.0168,1.7465,0,1.5901,2.0854
0.0199,1.7226,0,1.5906,2.084
0.0165,1.7179,0,1.5911,2.0826
0.0167,1.7196,0,1.5917,2.0811
0.02,1.5898,0,1.5893,2.0792
0.0167,2.0809,1,1.5912,2.0879
0.0168,3.2547,0,1.5977,2.1544
0.02,2.4274,0,1.601,2.1555
0.0167,1.7541,0,1.5951,2.1539
0.02,1.4645,0,1.5849,2.1512
0.0166,1.4005,0,1.5765,2.1483
0.0166,1.4215,0,1.5708,2.1454
0.0201,1.4742,0,1.568,2.1428
0.0166,1.5276,0,1.5673,2.1404
0.02,1.5714,0,1.5673,2.1381
0.0167,1.6023,0,1.5675,2.136
0.0167,1.6257,0,1.5677,2.134
0.0202,1.64,0,1.568,2.1321
0.0164,1.6871,0,1.5684,2.1303
0.0186,1.7615,0,1.5692,2.1289
0.0184,1.8481,0,1.5703,2.1278
0.0172,1.8705,0,1.5715,2.1268
0.0191,1.803,0,1.5724,2.1255
0.0167,1.7219,0,1.573,2.1239
0.0166,1.6688,0,1.5733,2.1222
0.02,1.6446,0,1.5736,2.1203
0.0167,1.643,0,1.5739,2.1184
0.0167,1.6523,0,1.5742,2.1166
0.0201,1.6749,0,1.5746,2.1148
0.0166,1.689,0,1.575,2.1132
0.02,1.7132,0,1.5756,2.1116
0.0166,1.7115,0,1.5761,2.11
0.0166,1.7207,0,1.5767,2.1085
0.02,1.7238,0,1.5773,2.107
0.0166,1.715,0,1.5778,2.1055
0.0168,1.7089,0,1.5783,2.1039
0.02,1.7003,0,1.5788,2.1023
0.0165,1.7105,0,1.5793,2.1008
0.02,1.7041,0,1.5798,2.0992
0.0167,1.715,0,1.5803,2.0977
0.0167,1.7284,0,1.5809,2.0963
0.02,1.7426,0,1.5815,2.0949
0.0166,1.7474,0,1.5822,2.0935
0.0167,1.7359,0,1.5828,2.0921
0.0201,1.7256,0,1.5834,2.0907
0.0167,1.7156,0,1.5839,2.0892
0.02,1.7123,0,1.5844,2.0877
0.0167,1.7373,0,1.585,2.0864
0.0167,1.7554,0,1.5856,2.0851
0.0201,1.8005,0,1.5865,2.084
0.0166,1.7732,0,1.5872,2.0827
0.0166,1.7576,0,1.5879,2.0815
0.0201,1.723,0,1.5884,2.0801
0.0166,1.7115,0,1.5889,2.0786
0.02,1.6947,0,1.5893,2.0771
0.0168,1.5294,0,1.5841,2.075
0.0166,2.3117,1,1.5869,2.098
0.02,3.0286,0,1.5926,2.1472
0.0177,2.238,0,1.5951,2.1475
0.0172,1.7007,0,1.5897,2.1458
0.0191,1.476,0,1.5813,2.1432
0.0161,1.4402,0,1.5752,2.1404
0.02,1.4641,0,1.5712,2.1378
0.0167,1.5014,0,1.5691,2.1353
0.0166,1.5431,0,1.5689,2.1329
0.02,1.5766,0,1.5689,2.1308
0.0167,1.6138,0,1.5691,2.1287
0.0166,1.6458,0,1.5694,2.1268
0.0202,1.6793,0,1.5698,2.1251
0.0166,1.736,0,1.5705,2.1236
0.02,1.8038,0,1.5714,2.1223
0.0167,1.8851,0,1.5726,2.1214
0.0167,1.8731,0,1.5738,2.1204
0.02,1.7843,0,1.5746,2.1191
0.0168,1.7026,0,1.5751,2.1174
0.02,1.6591,0,1.5754,2.1157
0.0166,1.6544,0,1.5757,2.1138
0.0166,1.6626,0,1.5761,2.1121
0.0201,1.6816,0,1.5765,2.1104
0.0166,1.701,0,1.577,2.1088
0.0166,1.7237,0,1.5776,2.1073
0.0201,1.728,0,1.5781,2.1058
0.0166,1.7197,0,1.5787,2.1043
0.02,1.7072,0,1.5792,2.1027
0.0168,1.703,0,1.5797,2.1011
0.0166,1.6983,0,1.5802,2.0996
0.0201,1.7033,0,1.5806,2.098
0.0167,1.7082,0,1.5811,2.0965
0.0166,1.7164,0,1.5817,2.095
0.02,1.7288,0,1.5822,2.0936
0.0167,1.7363,0,1.5829,2.0922
0.02,1.742,0,1.5835,2.0908
0.0167,1.7276,0,1.584,2.0894
0.0166,1.7228,0,1.5846,2.0879
0.0201,1.7277,0,1.5851,2.0865
0.0174,1.7392,0,1.5858,2.0851
0.0174,1.7723,0,1.5865,2.0839
0.0192,1.7931,0,1.5873,2.0828
0.0166,1.7968,0,1.5881,2.0817
0.0194,1.7687,0,1.5888,2.0804
0.0167,1.7365,0,1.5894,2.0791
0.0167,1.7062,0,1.5899,2.0776
0.02,1.6831,0,1.5902,2.0761
0.0167,1.6396,0,1.5904,2.0744
0.0167,1.6022,0,1.5902,2.0725
0.02,2.9909,1,1.5957,2.133
0.0166,2.7109,0,1.6001,2.1507
0.0201,1.9822,0,1.6016,2.1501
0.0166,1.5861,0,1.594,2.1479
0.0166,1.4639,0,1.5867,2.1452
0.0201,1.4557,0,1.5814,2.1425
0.0167,1.4888,0,1.5784,2.1399
0.0167,1.5292,0,1.5772,2.1375
0.02,1.5654,0,1.5771,2.1353
0.0177,1.6036,0,1.5772,2.1332
0.019,1.6489,0,1.5775,2.1313
0.0166,1.6803,0,1.5779,2.1295
0.0167,1.7299,0,1.5785,2.128
0.02,1.7887,0,1.5793,2.1266
0.0167,1.8507,0,1.5804,2.1256
0.0167,1.8909,0,1.5816,2.1246
0.02,1.8359,0,1.5826,2.1235
0.0168,1.7459,0,1.5833,2.122
0.02,1.68,0,1.5836,2.1203
0.0167,1.6581,0,1.5839,2.1185
0.0166,1.6573,0,1.5842,2.1167
0.0201,1.6701,0,1.5846,2.1149
0.0165,1.6939,0,1.585,2.1133
0.0166,1.7083,0,1.5855,2.1117
0.0201,1.7164,0,1.586,2.1101
0.0166,1.7191,0,1.5865,2.1086
0.02,1.7135,0,1.587,2.107
0.0167,1.7083,0,1.5875,2.1055
0.0167,1.7034,0,1.5879,2.1039
0.0202,1.7082,0,1.5884,2.1023
0.0166,1.7164,0,1.5889,2.1008
0.0166,1.7256,0,1.5894,2.0994
0.0201,1.7319,0,1.59,2.0979
0.0166,1.7308,0,1.5906,2.0965
0.02,1.7337,0,1.5911,2.0951
0.0167,1.7281,0,1.5917,2.0936
0.0167,1.723,0,1.5922,2.0922
0.0201,1.7278,0,1.5927,2.0907
0.0166,1.7261,0,1.5932,2.0893
0.0166,1.7419,0,1.5938,2.0879
0.0201,1.783,0,1.5946,2.0868
0.0167,1.7967,0,1.5953,2.0856
0.02,1.811,0,1.5962,2.0845
0.0167,1.7767,0,1.5969,2.0833
0.0167,1.7424,0,1.5975,2.082
0.02,1.7082,0,1.5979,2.0805
0.0167,1.6903,0,1.5983,2.079
0.0167,1.6811,0,1.5986,2.0774
0.02,1.5444,0,1.5941,2.0753
0.0177,2.7077,1,1.5984,2.1207
0.019,2.9749,0,1.6038,2.1589
0.0166,2.1256,0,1.6059,2.1588
0.0167,1.6306,0,1.5981,2.1567
0.02,1.4526,0,1.5893,2.1539
0.0167,1.4194,0,1.582,2.151
0.0166,1.4474,0,1.5772,2.1483
0.0201,1.4958,0,1.5749,2.1457
0.0167,1.5446,0,1.5746,2.1434
0.02,1.5966,0,1.5746,2.1412
0.0166,1.6401,0,1.5749,2.1393
0.0166,1.6806,0,1.5753,2.1375
0.02,1.7169,0,1.5759,2.1358
0.0167,1.7747,0,1.5766,2.1344
0.0167,1.8395,0,1.5777,2.1332
0.02,1.8872,0,1.5789,2.1323
0.0166,1.8542,0,1.58,2.1312
0.02,1.7585,0,1.5807,2.1297
0.0167,1.681,0,1.5811,2.128
0.0167,1.6486,0,1.5813,2.1261
0.0202,1.6541,0,1.5816,2.1242
0.0165,1.6657,0,1.5819,2.1224
0.02,1.6827,0,1.5823,2.1207
0.0167,1.6948,0,1.5828,2.119
0.0166,1.6989,0,1.5832,2.1174
0.02,1.7067,0,1.5837,2.1158
0.0168,1.7028,0,1.5842,2.1142
0.0167,1.7113,0,1.5847,2.1126
0.02,1.7141,0,1.5852,2.111
0.0165,1.7183,0,1.5857,2.1095
0.02,1.736,0,1.5863,2.108
0.0167,1.7419,0,1.5869,2.1066
0.0167,1.7406,0,1.5875,2.1051
0.02,1.7369,0,1.5881,2.1037
0.0166,1.7259,0,1.5886,2.1022
0.0168,1.7223,0,1.5892,2.1007
0.02,1.7243,0,1.5897,2.0993
0.0167,1.7315,0,1.5903,2.0978
0.0166,1.7404,0,1.5908,2.0964
0.0201,1.7401,0,1.5914,2.095
0.0165,1.7563,0,1.5921,2.0937
0.02,1.7878,0,1.5928,2.0925
0.0167,1.795,0,1.5936,2.0913
0.0166,1.8137,0,1.5945,2.0902
0.0201,1.7711,0,1.5952,2.089
0.0167,1.7341,0,1.5957,2.0876
0.0167,1.7119,0,1.5962,2.0861
0.02,1.6948,0,1.5966,2.0846
0.0167,1.7021,0,1.597,2.0831
0.0201,1.5416,0,1.592,2.081
0.0165,2.6286,1,1.5961,2.1216
0.0167,3.0691,0,1.6018,2.1665
0.02,2.1798,0,1.6041,2.1666
0.0167,1.6422,0,1.5961,2.1645
0.02,1.4369,0,1.5862,2.1617
0.0167,1.3978,0,1.5782,2.1587
0.0166,1.4369,0,1.5733,2.1559
0.0201,1.4923,0,1.5711,2.1533
0.0167,1.5466,0,1.571,2.1509
0.0167,1.5941,0,1.5711,2.1487
0.02,1.6392,0,1.5714,2.1467
0.0167,1.664,0,1.5717,2.1448
0.02,1.6919,0,1.5722,2.143
0.0167,1.737,0,1.5729,2.1414
0.0167,1.8139,0,1.5738,2.1401
0.0201,1.8754,0,1.575,2.1391
0.0166,1.8568,0,1.5761,2.138
0.0167,1.7757,0,1.5769,2.1366
0.0201,1.7063,0,1.5774,2.1349
0.0165,1.6733,0,1.5778,2.1331
0.02,1.6689,0,1.5781,2.1313
0.0167,1.6707,0,1.5785,2.1295
0.0166,1.6713,0,1.5788,2.1277
0.02,1.6649,0,1.5792,2.1258
0.0167,1.6693,0,1.5795,2.1241
0.0167,1.6839,0,1.5799,2.1223
0.0201,1.6985,0,1.5804,2.1207
0.0167,1.7066,0,1.5809,2.119
0.02,1.7223,0,1.5815,2.1175
0.0165,1.7308,0,1.582,2.116
0.0167,1.7239,0,1.5826,2.1144
0.0201,1.7248,0,1.5832,2.1129
0.0167,1.7089,0,1.5837,2.1113
0.0166,1.697,0,1.5841,2.1097
0.02,1.7029,0,1.5846,2.1081
0.0167,1.7146,0,1.5851,2.1066
0.0201,1.7185,0,1.5856,2.105
0.0166,1.7328,0,1.5862,2.1036
0.0166,1.7506,0,1.5868,2.1022
0.0201,1.75,0,1.5875,2.1008
0.0166,1.7433,0,1.5881,2.0994
0.0167,1.7574,0,1.5887,2.0981
0.02,1.7686,0,1.5894,2.0968
0.0167,1.7919,0,1.5902,2.0956
0.0201,1.7703,0,1.5909,2.0943
0.0165,1.7371,0,1.5915,2.0929
0.0166,1.7097,0,1.592,2.0914
0.0199,1.7006,0,1.5924,2.0899
0.0167,1.7138,0,1.5929,2.0884
0.0166,1.5879,0,1.5905,2.0864
0.02,2.0835,1,1.5924,2.0951
0.0167,3.1676,0,1.5986,2.1563
0.02,2.3755,0,1.6016,2.1571
0.0167,1.7563,0,1.5968,2.1555
0.0178,1.4848,0,1.5876,2.1529
0.0188,1.4203,0,1.5799,2.15
0.0167,1.4444,0,1.575,2.1473
0.0166,1.5014,0,1.5731,2.1447
0.02,1.5431,0,1.5727,2.1424
0.0167,1.5831,0,1.5727,2.1402
0.02,1.616,0,1.5729,2.1381
0.0167,1.6302,0,1.5731,2.1361
0.0166,1.6513,0,1.5734,2.1342
0.0201,1.6941,0,1.5739,2.1325
0.0166,1.754,0,1.5746,2.131
0.0167,1.8326,0,1.5756,2.1299
0.02,1.8621,0,1.5767,2.1288
0.0166,1.8002,0,1.5776,2.1275
0.0201,1.7177,0,1.5782,2.1259
0.0167,1.6609,0,1.5785,2.1241
0.0167,1.6419,0,1.5787,2.1222
0.02,1.6356,0,1.5789,2.1203
0.0166,1.6465,0,1.5792,2.1184
0.0167,1.6665,0,1.5796,2.1167
0.02,1.6862,0,1.58,2.115
0.0167,1.6992,0,1.5804,2.1133
0.02,1.7068,0,1.5809,2.1117
0.0167,1.7159,0,1.5815,2.1102
0.0167,1.7091,0,1.582,2.1086
0.02,1.7069,0,1.5825,2.107
0.0167,1.6964,0,1.5829,2.1054
0.0198,1.6994,0,1.5834,2.1038
0.0172,1.7069,0,1.5838,2.1023
0.0161,1.7094,0,1.5843,2.1007
0.02,1.7135,0,1.5848,2.0992
0.0167,1.7246,0,1.5854,2.0978
0.0167,1.7316,0,1.586,2.0963
0.0201,1.7307,0,1.5865,2.0949
0.0166,1.7401,0,1.5871,2.0935
0.0182,1.7694,0,1.5878,2.0922
0.0186,1.7889,0,1.5886,2.091
0.0165,1.7889,0,1.5894,2.0899
0.02,1.7432,0,1.59,2.0885
0.0166,1.7085,0,1.5905,2.087
0.0167,1.7002,0,1.5909,2.0855
0.02,1.7006,0,1.5914,2.084
0.0167,1.6747,0,1.5917,2.0824
0.0167,1.5814,0,1.5896,2.0804
0.02,2.9058,1,1.5948,2.1361
0.0166,2.7509,0,1.5993,2.1575
0.0201,1.9922,0,1.6009,2.1569
0.0167,1.5732,0,1.5924,2.1546
0.0166,1.44,0,1.5841,2.1518
0.02,1.4347,0,1.5781,2.149
0.0166,1.4786,0,1.575,2.1463
0.02,1.5323,0,1.5742,2.1439
0.0168,1.5828,0,1.5743,2.1417
0.0166,1.6159,0,1.5744,2.1397
0.02,1.6432,0,1.5747,2.1377
0.0166,1.6621,0,1.5751,2.1359
0.0167,1.6912,0,1.5755,2.1341
0.02,1.7563,0,1.5762,2.1326
0.0166,1.8334,0,1.5772,2.1315
0.0201,1.8852,0,1.5784,2.1305
0.0166,1.834,0,1.5794,2.1293
0.0166,1.742,0,1.5801,2.1278
0.0201,1.6787,0,1.5805,2.1261
0.0167,1.6577,0,1.5808,2.1242
0.0167,1.6474,0,1.581,2.1223
0.02,1.6472,0,1.5813,2.1205
0.0167,1.6569,0,1.5816,2.1187
0.0199,1.6765,0,1.582,2.1169
0.0167,1.6927,0,1.5824,2.1153
0.0167,1.7112,0,1.5829,2.1137
0.02,1.7174,0,1.5834,2.1121
0.0167,1.7259,0,1.584,2.1106
0.0166,1.7255,0,1.5845,2.1091
0.0201,1.7221,0,1.5851,2.1076
0.0167,1.708,0,1.5856,2.106
0.02,1.7,0,1.586,2.1044
0.0166,1.7006,0,1.5865,2.1028
0.0166,1.7073,0,1.5869,2.1013
0.0201,1.7161,0,1.5874,2.0998
0.0167,1.7418,0,1.588,2.0984
0.0167,1.7438,0,1.5887,2.097
0.0205,1.7804,0,1.5894,2.0957
0.0171,1.7958,0,1.5902,2.0946
0.019,1.8009,0,1.591,2.0934
0.0167,1.757,0,1.5917,2.0921
0.0166,1.7229,0,1.5922,2.0906
0.0201,1.7017,0,1.5926,2.0891
0.0166,1.7011,0,1.5931,2.0876
0.017,1.6977,0,1.5935,2.0861
0.0197,1.5597,0,1.5897,2.084
0.0167,2.7617,1,1.5943,2.1318
0.02,2.8951,0,1.5994,2.1641
0.0166,2.0762,0,1.6013,2.1637
0.0168,1.6044,0,1.5931,2.1615
0.02,1.4374,0,1.584,2.1587
0.0166,1.4143,0,1.577,2.1558
0.0166,1.4522,0,1.5727,2.153
0.02,1.5072,0,1.5711,2.1505
0.0167,1.5646,0,1.5711,2.1482
0.02,1.6164,0,1.5713,2.1461
0.0168,1.6499,0,1.5716,2.1442
0.0177,1.6774,0,1.572,2.1423
0.0192,1.7028,0,1.5725,2.1406
0.0164,1.7504,0,1.5732,2.1391
0.0165,1.8249,0,1.5742,2.1379
0.0201,1.8791,0,1.5754,2.1368
0.0167,1.8385,0,1.5764,2.1357
0.02,1.75,0,1.5771,2.1342
0.0167,1.6912,0,1.5776,2.1324
0.0167,1.6651,0,1.5779,2.1306
0.0202,1.6629,0,1.5782,2.1288
0.0165,1.6654,0,1.5786,2.1269
0.0167,1.6825,0,1.579,2.1252
0.0201,1.6882,0,1.5794,2.1235
0.0165,1.6999,0,1.5799,2.1218
0.02,1.7103,0,1.5804,2.1202
0.0166,1.7236,0,1.581,2.1186
0.0168,1.7247,0,1.5815,2.1171
0.02,1.7349,0,1.5821,2.1156
0.0168,1.7383,0,1.5827,2.1141
0.0167,1.7329,0,1.5833,2.1126
0.02,1.7278,0,1.5839,2.1111
0.0167,1.7196,0,1.5844,2.1096
0.0199,1.7234,0,1.585,2.1081
0.0166,1.7247,0,1.5855,2.1066
0.0166,1.7284,0,1.5861,2.1051
0.0201,1.7394,0,1.5867,2.1037
0.0167,1.7561,0,1.5873,2.1023
0.0166,1.7877,0,1.5881,2.1011
0.0201,1.8243,0,1.5891,2.1
0.0166,1.7974,0,1.5899,2.0988
0.0201,1.7559,0,1.5905,2.0974
0.0166,1.7192,0,1.591,2.096
0.0166,1.6972,0,1.5915,2.0944
0.02,1.6931,0,1.5918,2.0928
0.0167,1.6234,0,1.5919,2.091
0.0167,1.8021,0,1.5927,2.0898
0.02,3.2465,1,1.5992,2.1607
0.0166,2.6299,0,1.6032,2.1682
0.0201,1.89,0,1.6014,2.1671
0.0167,1.5358,0,1.5926,2.1646
0.0166,1.4243,0,1.584,2.1617
0.02,1.423,0,1.5777,2.1588
0.0167,1.4681,0,1.5742,2.1561
0.02,1.5093,0,1.5723,2.1536
0.0167,1.5718,0,1.5723,2.1513
0.0167,1.6253,0,1.5726,2.1493
0.02,1.6594,0,1.5729,2.1473
0.0167,1.687,0,1.5733,2.1455
0.0167,1.7223,0,1.5739,2.1439
0.0201,1.7895,0,1.5748,2.1425
0.0166,1.8575,0,1.5759,2.1414
0.02,1.8802,0,1.5771,2.1403
0.0166,1.8095,0,1.578,2.139
0.0167,1.7273,0,1.5786,2.1374
0.02,1.6901,0,1.579,2.1357
0.0166,1.6745,0,1.5794,2.1339
0.0167,1.6758,0,1.5798,2.1321
0.0201,1.686,0,1.5802,2.1303
0.0177,1.6927,0,1.5806,2.1286
0.0189,1.6916,0,1.5811,2.1269
0.0172,1.7011,0,1.5815,2.1252
0.0161,1.7075,0,1.582,2.1236
0.02,1.7063,0,1.5825,2.1219
0.0166,1.7125,0,1.583,2.1203
0.0167,1.7341,0,1.5836,2.1188
0.02,1.738,0,1.5842,2.1173
0.0168,1.7328,0,1.5848,2.1158
0.0199,1.7311,0,1.5854,2.1143
0.0167,1.724,0,1.5859,2.1128
0.0166,1.7216,0,1.5864,2.1112
0.0202,1.7078,0,1.5869,2.1097
0.0175,1.7097,0,1.5874,2.1081
0.0156,1.7169,0,1.5879,2.1066
0.0201,1.7323,0,1.5885,2.1051
0.0167,1.7765,0,1.5892,2.1038
0.0199,1.8043,0,1.5901,2.1026
0.0168,1.807,0,1.5909,2.1015
0.0166,1.7656,0,1.5916,2.1002
0.0201,1.7225,0,1.5921,2.0987
0.0166,1.6918,0,1.5925,2.0971
0.0166,1.6881,0,1.5929,2.0955
0.02,1.6738,0,1.5932,2.0938
0.0166,1.5615,0,1.59,2.0917
0.02,2.8796,1,1.595,2.1459
0.0166,2.8921,0,1.6001,2.1754
0.0167,2.0491,0,1.6019,2.1749
0.02,1.5856,0,1.5931,2.1726
0.0167,1.4246,0,1.5836,2.1696
0.0167,1.4068,0,1.5764,2.1666
0.0201,1.4334,0,1.5712,2.1638
0.0165,1.4879,0,1.5689,2.1611
0.02,1.5419,0,1.5688,2.1587
0.0167,1.5892,0,1.5689,2.1565
0.0167,1.6376,0,1.5692,2.1544
0.02,1.6733,0,1.5696,2.1525
0.0167,1.7112,0,1.5701,2.1508
0.0167,1.7532,0,1.5708,2.1492
0.02,1.8161,0,1.5718,2.1479
0.0165,1.8729,0,1.573,2.1469
0.0202,1.8364,0,1.574,2.1456
0.0165,1.7493,0,1.5747,2.1441
0.0167,1.6779,0,1.5751,2.1423
0.02,1.6411,0,1.5754,2.1403
0.0167,1.6549,0,1.5757,2.1384
0.02,1.6693,0,1.576,2.1365
0.0168,1.6838,0,1.5765,2.1348
0.0167,1.6822,0,1.5769,2.133
0.02,1.6816,0,1.5773,2.1312
0.0167,1.6945,0,1.5778,2.1295
0.0165,1.6922,0,1.5782,2.1278
0.0201,1.6947,0,1.5787,2.1261
0.0166,1.7021,0,1.5791,2.1244
0.02,1.7241,0,1.5797,2.1229
0.0167,1.7347,0,1.5803,2.1213
0.0167,1.7252,0,1.5809,2.1198
0.0201,1.7285,0,1.5815,2.1183
0.0165,1.7296,0,1.582,2.1167
0.0166,1.7235,0,1.5826,2.1152
0.0201,1.7182,0,1.5831,2.1136
0.0166,1.7262,0,1.5837,2.1121
0.02,1.7191,0,1.5842,2.1106
0.0167,1.7298,0,1.5848,2.1091
0.0166,1.7463,0,1.5854,2.1077
0.02,1.7779,0,1.5862,2.1064
0.0168,1.8113,0,1.5871,2.1052
0.0167,1.7931,0,1.5879,2.104
0.0201,1.7512,0,1.5885,2.1026
0.0167,1.7079,0,1.589,2.1011
0.0199,1.6934,0,1.5894,2.0995
0.0166,1.6919,0,1.5898,2.0979
0.0166,1.6099,0,1.5891,2.0959
0.02,1.7976,0,1.59,2.0948
0.0167,3.2027,1,1.5963,2.163
0.0168,2.5632,0,1.6001,2.1674
0.0201,1.858,0,1.5977,2.1662
0.0179,1.5219,0,1.5888,2.1637
0.0187,1.4099,0,1.5798,2.1607
0.0176,1.4214,0,1.5738,2.1578
0.0161,1.4676,0,1.5705,2.1551
0.0196,1.5221,0,1.5695,2.1526
0.0167,1.5794,0,1.5696,2.1504
0.0166,1.6213,0,1.5698,2.1483
0.02,1.6613,0,1.5701,2.1464
0.0167,1.6877,0,1.5706,2.1446
0.0201,1.7291,0,1.5712,2.143
0.0166,1.782,0,1.5721,2.1416
0.0166,1.8452,0,1.5731,2.1404
0.0201,1.8728,0,1.5743,2.1393
0.0165,1.8038,0,1.5752,2.138
0.0167,1.7156,0,1.5758,2.1364
0.0201,1.6602,0,1.5761,2.1345
0.0166,1.6547,0,1.5764,2.1326
0.02,1.6659,0,1.5767,2.1308
0.0168,1.6762,0,1.5771,2.129
0.0166,1.6861,0,1.5776,2.1273
0.0201,1.6927,0,1.578,2.1256
0.0165,1.6982,0,1.5785,2.1239
0.0166,1.7,0,1.579,2.1222
0.02,1.7038,0,1.5794,2.1206
0.0167,1.7116,0,1.58,2.119
0.02,1.7175,0,1.5805,2.1174
0.0167,1.7292,0,1.5811,2.1159
0.0168,1.7201,0,1.5816,2.1143
0.0202,1.7171,0,1.5822,2.1128
0.0165,1.7063,0,1.5827,2.1112
0.0166,1.7157,0,1.5832,2.1096
0.0201,1.7156,0,1.5837,2.1081
0.0166,1.709,0,1.5842,2.1065
0.02,1.7264,0,1.5847,2.105
0.0167,1.7355,0,1.5853,2.1036
0.0167,1.7711,0,1.5861,2.1023
0.02,1.7862,0,1.5868,2.101
0.0168,1.8238,0,1.5878,2.1
0.0166,1.781,0,1.5885,2.0987
0.0201,1.7341,0,1.5891,2.0973
0.0166,1.6989,0,1.5895,2.0957
0.0201,1.6839,0,1.5899,2.0941
0.0165,1.6855,0,1.5903,2.0925
0.0167,1.5459,0,1.5861,2.0904
0.02,2.3693,1,1.5891,2.1158
0.0167,3.0739,0,1.595,2.1658
0.0168,2.2498,0,1.5975,2.1662
0.0205,1.7046,0,1.5921,2.1643
0.0162,1.4871,0,1.5842,2.1617
0.0201,1.4341,0,1.5773,2.1588
0.0165,1.4458,0,1.5724,2.156
0.0166,1.492,0,1.5701,2.1534
0.02,1.54,0,1.5697,2.151
0.0167,1.5854,0,1.5698,2.1488
0.0167,1.633,0,1.57,2.1468
0.02,1.6718,0,1.5704,2.1449
0.0167,1.7009,0,1.5709,2.1432
0.0201,1.7498,0,1.5716,2.1416
0.0166,1.8182,0,1.5726,2.1404
0.0167,1.8801,0,1.5738,2.1394
0.02,1.8551,0,1.5749,2.1382
0.0166,1.7718,0,1.5757,2.1368
0.02,1.6952,0,1.5762,2.1351
0.0167,1.6599,0,1.5765,2.1332
0.0167,1.6611,0,1.5768,2.1314
0.02,1.6713,0,1.5772,2.1296
0.0168,1.6813,0,1.5776,2.1278
0.0166,1.6943,0,1.5781,2.1261
0.0201,1.702,0,1.5785,2.1244
0.0167,1.7078,0,1.579,2.1228
0.0199,1.7097,0,1.5796,2.1212
0.0166,1.7103,0,1.5801,2.1196
0.0167,1.7171,0,1.5806,2.118
0.0201,1.7258,0,1.5812,2.1165
0.0167,1.732,0,1.5818,2.1149
0.0166,1.7308,0,1.5824,2.1134
0.0201,1.7239,0,1.5829,2.1119
0.0167,1.7118,0,1.5834,2.1103
0.02,1.711,0,1.5839,2.1088
0.0166,1.7075,0,1.5844,2.1072
0.0166,1.7064,0,1.5849,2.1056
0.0201,1.719,0,1.5854,2.1041
0.0167,1.7232,0,1.5859,2.1026
0.0166,1.7376,0,1.5865,2.1012
0.0201,1.7653,0,1.5872,2.0999
0.0168,1.7843,0,1.588,2.0986
0.0199,1.8069,0,1.5889,2.0975
0.0166,1.7688,0,1.5896,2.0962
0.0166,1.7333,0,1.5901,2.0948
0.0205,1.6987,0,1.5906,2.0932
0.0162,1.6904,0,1.591,2.0916
0.0166,1.6941,0,1.5914,2.0901
0.02,1.5585,0,1.5877,2.088
0.0167,2.1911,1,1.59,2.1032
0.02,3.1807,0,1.5963,2.1629
0.0168,2.3408,0,1.5992,2.1636
0.0166,1.7382,0,1.594,2.162
0.0201,1.4755,0,1.5847,2.1593
0.0166,1.4074,0,1.5766,2.1563
0.0165,1.4239,0,1.5709,2.1534
0.02,1.4749,0,1.568,2.1508
0.0167,1.5441,0,1.5679,2.1484
0.0199,1.5932,0,1.568,2.1462
0.0167,1.6389,0,1.5683,2.1442
0.0168,1.6737,0,1.5687,2.1424
0.02,1.6983,0,1.5692,2.1406
0.0166,1.7391,0,1.5699,2.1391
0.0167,1.8049,0,1.5708,2.1378
0.0201,1.8757,0,1.572,2.1367
0.0165,1.8699,0,1.5732,2.1357
0.02,1.7898,0,1.574,2.1343
0.0167,1.711,0,1.5746,2.1327
0.0167,1.6684,0,1.5749,2.1309
0.02,1.664,0,1.5753,2.129
0.0167,1.669,0,1.5757,2.1272
0.0167,1.6707,0,1.576,2.1254
0.0201,1.668,0,1.5764,2.1236
0.0165,1.6801,0,1.5768,2.1219
0.02,1.6842,0,1.5772,2.1202
0.0166,1.6953,0,1.5777,2.1185
0.0166,1.7088,0,1.5782,2.1169
0.0201,1.7198,0,1.5787,2.1153
0.0167,1.7235,0,1.5793,2.1138
0.0168,1.7247,0,1.5799,2.1123
0.02,1.7186,0,1.5804,2.1107
0.0166,1.7198,0,1.581,2.1092
0.02,1.7105,0,1.5815,2.1076
0.0166,1.7106,0,1.582,2.1061
0.0167,1.7171,0,1.5825,2.1046
0.02,1.7226,0,1.5831,2.1031
0.0167,1.7342,0,1.5837,2.1016
0.0166,1.7446,0,1.5843,2.1002
0.0201,1.7513,0,1.5849,2.0988
0.0168,1.7568,0,1.5856,2.0975
0.02,1.7488,0,1.5863,2.0961
0.0167,1.7364,0,1.5868,2.0947
0.0166,1.7583,0,1.5875,2.0934
0.02,1.7787,0,1.5883,2.0922
0.0165,1.7855,0,1.589,2.091
0.0166,1.7584,0,1.5897,2.0897
0.02,1.7363,0,1.5903,2.0883
0.0167,1.7192,0,1.5908,2.0868
0.02,1.7168,0,1.5913,2.0854
0.0167,1.654,0,1.5915,2.0837
0.0167,1.7179,0,1.592,2.0823
0.0201,3.163,1,1.5982,2.1501
0.0167,2.6379,0,1.6023,2.16
0.0165,1.8894,0,1.6003,2.1589
0.02,1.5259,0,1.591,2.1565
0.0166,1.421,0,1.5825,2.1536
0.02,1.4349,0,1.5769,2.1508
0.0166,1.4851,0,1.5742,2.1482
0.0168,1.5377,0,1.5737,2.1458
0.0201,1.5748,0,1.5737,2.1435
0.0174,1.6067,0,1.5738,2.1414
0.0158,1.6369,0,1.5741,2.1394
0.0201,1.66,0,1.5744,2.1376
0.0165,1.7035,0,1.5749,2.1359
0.02,1.7735,0,1.5757,2.1344
0.0167,1.8619,0,1.5768,2.1334
0.0167,1.9044,0,1.5781,2.1325
0.02,1.8469,0,1.5792,2.1313
0.0168,1.7528,0,1.5798,2.1299
0.02,1.6791,0,1.5802,2.1281
0.0167,1.6447,0,1.5805,2.1262
0.0167,1.6333,0,1.5807,2.1243
0.0201,1.636,0,1.5809,2.1224
0.0165,1.6499,0,1.5812,2.1205
0.0167,1.6774,0,1.5816,2.1188
0.02,1.693,0,1.582,2.1171
0.0167,1.708,0,1.5825,2.1155
0.02,1.7228,0,1.583,2.1139
0.0168,1.7245,0,1.5836,2.1124
0.0166,1.7153,0,1.5841,2.1109
0.02,1.7155,0,1.5846,2.1093
0.0167,1.709,0,1.5851,2.1077
0.0165,1.7036,0,1.5856,2.1062
0.0201,1.7083,0,1.5861,2.1046
0.0167,1.7196,0,1.5866,2.1031
0.02,1.7332,0,1.5872,2.1016
0.0166,1.7377,0,1.5878,2.1002
0.0166,1.7392,0,1.5883,2.0988
0.0202,1.73,0,1.5889,2.0973
0.0167,1.7269,0,1.5894,2.0959
0.0167,1.7291,0,1.59,2.0945
0.02,1.7266,0,1.5905,2.093
0.0166,1.729,0,1.5911,2.0916
0.02,1.7428,0,1.5917,2.0902
0.0167,1.7833,0,1.5924,2.089
0.0167,1.8131,0,1.5933,2.0879
0.0201,1.81,0,1.5941,2.0868
0.0166,1.7633,0,1.5948,2.0856
0.0167,1.7249,0,1.5953,2.0842
0.02,1.6926,0,1.5957,2.0826
0.0177,1.6818,0,1.596,2.0811
0.0189,1.6261,0,1.5961,2.0793
0.0166,1.6792,0,1.5965,2.0777
0.0167,3.1339,1,1.6025,2.1448
0.02,2.6738,0,1.6067,2.1574
0.0166,1.9144,0,1.6054,2.1565
0.0167,1.5407,0,1.5962,2.154
0.02,1.4194,0,1.5872,2.1512
0.0167,1.4083,0,1.5799,2.1483
0.0199,1.4404,0,1.575,2.1455
0.0167,1.4837,0,1.5722,2.1429
0.0166,1.5405,0,1.572,2.1405
0.02,1.5888,0,1.5721,2.1384
0.0167,1.6277,0,1.5723,2.1364
0.0166,1.6732,0,1.5727,2.1345
0.0201,1.7145,0,1.5732,2.1329
0.0167,1.7738,0,1.574,2.1315
0.0201,1.8523,0,1.5751,2.1304
0.0172,1.8947,0,1.5764,2.1295
0.016,1.8339,0,1.5774,2.1283
0.02,1.7387,0,1.578,2.1268
0.0166,1.6776,0,1.5784,2.125
0.0167,1.6638,0,1.5787,2.1232
0.02,1.6657,0,1.5791,2.1214
0.0166,1.6794,0,1.5795,2.1197
0.02,1.697,0,1.5799,2.118
0.0167,1.6996,0,1.5804,2.1164
0.0166,1.707,0,1.5809,2.1148
0.0202,1.7029,0,1.5814,2.1132
0.0165,1.6983,0,1.5818,2.1115
0.0166,1.6968,0,1.5823,2.1099
0.0201,1.706,0,1.5828,2.1083
0.0178,1.7059,0,1.5832,2.1067
0.0187,1.7188,0,1.5838,2.1052
0.0167,1.7264,0,1.5843,2.1037
0.0167,1.7289,0,1.5849,2.1023
0.02,1.7265,0,1.5855,2.1008
0.0166,1.7159,0,1.586,2.0993
0.0165,1.7157,0,1.5865,2.0978
0.02,1.7123,0,1.587,2.0963
0.0166,1.7177,0,1.5875,2.0948
0.0204,1.7293,0,1.588,2.0934
0.0171,1.7397,0,1.5886,2.092
0.0158,1.7562,0,1.5893,2.0906
0.02,1.7584,0,1.59,2.0893
0.0167,1.7559,0,1.5906,2.088
0.0183,1.7616,0,1.5913,2.0868
0.0184,1.783,0,1.592,2.0856
0.0167,1.8097,0,1.5929,2.0845
0.02,1.7958,0,1.5937,2.0834
0.0167,1.7618,0,1.5943,2.0821
0.0179,1.7342,0,1.5949,2.0807
0.0187,1.725,0,1.5954,2.0793
0.0167,1.7187,0,1.5959,2.0779
0.0165,1.6449,0,1.5961,2.0762
0.0202,1.8386,0,1.597,2.0753
0.018,3.2391,1,1.6035,2.1456
0.0187,2.5688,0,1.6072,2.1504
0.0167,1.8436,0,1.6037,2.1492
0.0166,1.5073,0,1.594,2.1467
0.02,1.4115,0,1.5852,2.1438
0.0176,1.4285,0,1.5793,2.141
0.0157,1.4765,0,1.5761,2.1384
0.0201,1.5348,0,1.5755,2.136
0.0168,1.5706,0,1.5755,2.1338
0.0202,1.6118,0,1.5757,2.1318
0.0163,1.6288,0,1.5759,2.1298
0.0167,1.6508,0,1.5762,2.1279
0.0201,1.6972,0,1.5766,2.1262
0.0166,1.7583,0,1.5773,2.1248
0.0185,1.8504,0,1.5784,2.1237
0.0182,1.8908,0,1.5796,2.1228
0.0167,1.8457,0,1.5807,2.1217
0.02,1.7524,0,1.5814,2.1203
0.0169,1.679,0,1.5817,2.1185
0.0177,1.6349,0,1.582,2.1166
0.0189,1.6398,0,1.5822,2.1148
0.0167,1.6512,0,1.5824,2.1129
0.02,1.6648,0,1.5828,2.1112
0.0166,1.6791,0,1.5831,2.1095
0.0166,1.7001,0,1.5836,2.1079
0.02,1.7104,0,1.5841,2.1063
0.0166,1.7269,0,1.5847,2.1048
0.0168,1.7258,0,1.5852,2.1034
0.0207,1.7157,0,1.5857,2.1018
0.017,1.7123,0,1.5862,2.1003
0.0188,1.7112,0,1.5867,2.0988
0.0167,1.7043,0,1.5872,2.0972
0.0167,1.7118,0,1.5877,2.0957
0.0199,1.7176,0,1.5882,2.0942
0.0166,1.726,0,1.5887,2.0928
0.0167,1.7418,0,1.5893,2.0914
0.0201,1.7439,0,1.5899,2.0901
0.0167,1.7445,0,1.5905,2.0887
0.0166,1.735,0,1.5911,2.0873
0.0201,1.7318,0,1.5916,2.0859
0.0167,1.721,0,1.5922,2.0845
0.0199,1.7173,0,1.5926,2.083
0.0167,1.7292,0,1.5932,2.0817
0.018,1.7592,0,1.5938,2.0804
0.0186,1.792,0,1.5946,2.0793
0.0167,1.7704,0,1.5953,2.0781
0.0168,1.7631,0,1.596,2.0768
0.0201,1.7347,0,1.5965,2.0755
0.0163,1.7317,0,1.597,2.0741
0.02,1.7046,0,1.5975,2.0727
0.0166,1.5718,0,1.5941,2.0707
0.0168,2.8732,1,1.5991,2.1252
0.0206,2.8639,0,1.6041,2.154
0.0171,2.069,0,1.6059,2.1536
0.0155,1.6313,0,1.5992,2.1516
0.0201,1.4757,0,1.5916,2.1489
0.0167,1.4596,0,1.5861,2.1462
0.0206,1.4771,0,1.5822,2.1436
0.0168,1.5188,0,1.5804,2.1411
0.016,1.5555,0,1.5801,2.1389
0.0199,1.597,0,1.5801,2.1367
0.0167,1.6304,0,1.5803,2.1347
0.02,1.6611,0,1.5807,2.1329
0.0166,1.7007,0,1.5811,2.1312
0.0167,1.7562,0,1.5818,2.1297
0.02,1.8301,0,1.5828,2.1285
0.0167,1.8971,0,1.584,2.1276
0.0182,1.864,0,1.5851,2.1266
0.0185,1.7716,0,1.5859,2.1252
0.0168,1.6788,0,1.5862,2.1235
0.0199,1.6479,0,1.5865,2.1216
0.0168,1.6409,0,1.5867,2.1197
0.0178,1.6613,0,1.587,2.1179
0.0187,1.691,0,1.5874,2.1162
0.0166,1.7008,0,1.5878,2.1146
0.0167,1.7204,0,1.5883,2.1131
0.02,1.7237,0,1.5889,2.1115
0.0166,1.7215,0,1.5894,2.11
0.02,1.711,0,1.5899,2.1084
0.0167,1.7043,0,1.5903,2.1069
0.0166,1.715,0,1.5908,2.1053
0.0203,1.7219,0,1.5913,2.1038
0.0172,1.7307,0,1.5919,2.1024
0.0159,1.7369,0,1.5924,2.1009
0.0199,1.7324,0,1.593,2.0995
0.0169,1.7309,0,1.5935,2.098
0.0198,1.7272,0,1.594,2.0966
0.0166,1.7325,0,1.5946,2.0951
0.0167,1.7244,0,1.5951,2.0937
0.02,1.725,0,1.5956,2.0922
0.0168,1.7317,0,1.5961,2.0908
0.0165,1.7437,0,1.5967,2.0895
0.02,1.7608,0,1.5974,2.0882
0.0167,1.7697,0,1.598,2.0869
0.0168,1.7923,0,1.5988,2.0858
0.0207,1.7574,0,1.5994,2.0845
0.017,1.7328,0,1.5999,2.0831
0.0188,1.7148,0,1.6004,2.0817
0.0166,1.7022,0,1.6008,2.0802
0.0181,1.6688,0,1.6011,2.0786
0.0186,1.625,0,1.6012,2.0768
0.0167,3.0571,1,1.6069,2.1405
0.0199,2.7818,0,1.6115,2.1608
0.0167,1.9928,0,1.6125,2.1601
0.0167,1.5831,0,1.6041,2.1579
0.02,1.4401,0,1.5952,2.1551
0.0168,1.4282,0,1.5884,2.1522
0.0166,1.4634,0,1.5841,2.1495
0.02,1.5044,0,1.5817,2.147
0.0167,1.5604,0,1.5816,2.1447
0.02,1.6085,0,1.5817,2.1426
0.0172,1.6407,0,1.582,2.1406
0.0171,1.6645,0,1.5823,2.1387
0.0189,1.7051,0,1.5828,2.137
0.0167,1.7609,0,1.5835,2.1356
0.0169,1.8284,0,1.5844,2.1344
0.0198,1.877,0,1.5856,2.1334
0.0166,1.8313,0,1.5865,2.1322
0.02,1.7411,0,1.5872,2.1306
0.0167,1.685,0,1.5875,2.1289
0.018,1.6597,0,1.5878,2.127
0.0187,1.6611,0,1.5881,2.1252
0.0167,1.6778,0,1.5885,2.1235
0.0169,1.6932,0,1.5889,2.1218
0.0204,1.6885,0,1.5893,2.1201
0.017,1.6935,0,1.5897,2.1184
0.0191,1.6854,0,1.59,2.1167
0.0167,1.6859,0,1.5904,2.115
0.0166,1.6894,0,1.5908,2.1133
0.02,1.7036,0,1.5913,2.1117
0.0166,1.7181,0,1.5918,2.1102
0.0167,1.7196,0,1.5923,2.1087
0.02,1.7234,0,1.5928,2.1072
0.0167,1.7214,0,1.5933,2.1056
0.0202,1.7208,0,1.5938,2.1041
0.017,1.714,0,1.5942,2.1026
0.0161,1.715,0,1.5947,2.1011
0.02,1.7154,0,1.5952,2.0996
0.0167,1.7318,0,1.5957,2.0981
0.0171,1.7405,0,1.5963,2.0967
0.0196,1.7467,0,1.5969,2.0954
0.0167,1.7618,0,1.5975,2.094
0.02,1.7635,0,1.5982,2.0927
0.0167,1.7706,0,1.5989,2.0915
0.0167,1.7828,0,1.5996,2.0903
0.0201,1.751,0,1.6002,2.0889
0.0176,1.7437,0,1.6007,2.0876
0.0157,1.7249,0,1.6012,2.0862
0.0207,1.7187,0,1.6017,2.0847
0.0173,1.6873,0,1.602,2.0832
0.0186,1.6181,0,1.6014,2.0813
0.0167,3.0092,1,1.607,2.1423
0.0167,2.7691,0,1.6115,2.1626
0.0204,1.982,0,1.6121,2.1619
0.0162,1.5632,0,1.6028,2.1596
0.0167,1.4204,0,1.5932,2.1567
0.02,1.4151,0,1.5861,2.1538
0.0177,1.4655,0,1.5823,2.1511
0.0191,1.5214,0,1.5809,2.1486
0.0174,1.5759,0,1.5808,2.1463
0.0158,1.6234,0,1.581,2.1443
0.02,1.6522,0,1.5813,2.1424
0.0167,1.6684,0,1.5816,2.1405
0.0182,1.6998,0,1.5821,2.1388
0.0186,1.7527,0,1.5828,2.1373
0.0166,1.8224,0,1.5837,2.136
0.02,1.875,0,1.5848,2.135
0.0166,1.8404,0,1.5858,2.1339
0.0178,1.7572,0,1.5865,2.1324
0.0188,1.6968,0,1.5869,2.1307
0.0167,1.6604,0,1.5872,2.1288
0.0168,1.6613,0,1.5875,2.127
0.0202,1.6616,0,1.5878,2.1252
0.0164,1.665,0,1.5881,2.1234
0.02,1.6694,0,1.5884,2.1216
0.0175,1.6773,0,1.5888,2.1198
0.0173,1.693,0,1.5892,2.1182
0.0188,1.6983,0,1.5896,2.1165
0.0174,1.7163,0,1.5901,2.1149
0.0156,1.7158,0,1.5906,2.1134
0.02,1.7156,0,1.5911,2.1118
0.0167,1.7091,0,1.5916,2.1102
0.02,1.7101,0,1.592,2.1087
0.0167,1.7072,0,1.5925,2.1071
0.0166,1.7095,0,1.5929,2.1055
0.0201,1.7103,0,1.5934,2.104
0.0179,1.7268,0,1.5939,2.1025
0.0154,1.7454,0,1.5945,2.1011
0.0201,1.7385,0,1.5951,2.0997
0.0167,1.7428,0,1.5957,2.0983
0.02,1.7376,0,1.5962,2.0969
0.0167,1.7359,0,1.5968,2.0955
0.0178,1.7321,0,1.5973,2.094
0.019,1.7504,0,1.5979,2.0927
0.0167,1.7565,0,1.5985,2.0914
0.0166,1.739,0,1.5991,2.09
0.0199,1.7364,0,1.5996,2.0886
0.0167,1.7355,0,1.6001,2.0872
0.0199,1.7352,0,1.6007,2.0858
0.0167,1.6113,0,1.5989,2.084
0.0167,2.0229,1,1.6006,2.0888
0.02,3.2191,0,1.6069,2.1543
0.0175,2.4285,0,1.6101,2.1554
0.0158,1.7903,0,1.6059,2.1539
0.0201,1.4993,0,1.5966,2.1514
0.0166,1.4284,0,1.5888,2.1485
0.0201,1.4406,0,1.5832,2.1457
0.0164,1.4871,0,1.5802,2.1432
0.0166,1.5481,0,1.58,2.1408
0.0201,1.5946,0,1.5801,2.1387
0.0167,1.6231,0,1.5803,2.1367
0.0166,1.6326,0,1.5805,2.1347
0.0202,1.6488,0,1.5807,2.1328
0.0167,1.6933,0,1.5812,2.1311
0.0199,1.757,0,1.5819,2.1296
0.0167,1.8499,0,1.5829,2.1285
0.018,1.8776,0,1.5841,2.1275
0.0186,1.825,0,1.585,2.1263
0.0167,1.7422,0,1.5856,2.1248
0.0167,1.6821,0,1.586,2.1231
0.0209,1.6457,0,1.5863,2.1212
0.0158,1.6369,0,1.5865,2.1193
0.0201,1.6437,0,1.5867,2.1174
0.0166,1.6623,0,1.587,2.1157
0.017,1.6815,0,1.5873,2.114
0.0198,1.6977,0,1.5878,2.1123
0.0176,1.7128,0,1.5883,2.1108
0.0155,1.7277,0,1.5888,2.1093
0.02,1.7294,0,1.5894,2.1078
0.0167,1.7234,0,1.5899,2.1063
0.0202,1.7149,0,1.5904,2.1047
0.0171,1.7088,0,1.5908,2.1032
0.016,1.7068,0,1.5913,2.1016
0.02,1.7159,0,1.5918,2.1001
0.0168,1.7189,0,1.5923,2.0986
0.0165,1.7362,0,1.5929,2.0972
0.02,1.7452,0,1.5935,2.0958
0.0166,1.7483,0,1.5941,2.0944
0.02,1.746,0,1.5947,2.0931
0.0166,1.7355,0,1.5952,2.0917
0.0166,1.7222,0,1.5957,2.0902
0.0201,1.721,0,1.5962,2.0888
0.0167,1.7467,0,1.5968,2.0874
0.0183,1.7585,0,1.5974,2.0861
0.0189,1.7559,0,1.598,2.0849
0.0172,1.7486,0,1.5986,2.0835
0.0189,1.7298,0,1.5991,2.0821
0.0167,1.7301,0,1.5997,2.0808
0.0167,1.5738,0,1.5959,2.0788
0.0204,2.1603,1,1.5981,2.0923
0.0163,3.1672,0,1.6043,2.1522
0.0167,2.3395,0,1.6071,2.153
0.0201,1.728,0,1.6011,2.1513
0.0181,1.4753,0,1.5917,2.1487
0.019,1.4302,0,1.5846,2.1458
0.017,1.451,0,1.5797,2.1431
0.0161,1.497,0,1.5773,2.1406
0.0198,1.545,0,1.5768,2.1382
0.0167,1.5935,0,1.5769,2.1361
0.0181,1.6325,0,1.5771,2.1341
0.0186,1.6422,0,1.5774,2.1322
0.0167,1.6716,0,1.5778,2.1304
0.02,1.7172,0,1.5783,2.1288
0.0167,1.8073,0,1.5792,2.1275
0.0166,1.8765,0,1.5804,2.1265
0.02,1.8897,0,1.5816,2.1256
0.0167,1.8029,0,1.5824,2.1243
0.02,1.7251,0,1.583,2.1228
0.0167,1.6731,0,1.5834,2.121
0.0178,1.6525,0,1.5836,2.1192
0.0188,1.6522,0,1.5839,2.1173
0.0166,1.6651,0,1.5842,2.1156
0.0167,1.6759,0,1.5846,2.1138
0.0206,1.6926,0,1.585,2.1122
0.0162,1.7177,0,1.5855,2.1106
0.0199,1.7293,0,1.5861,2.1092
0.0167,1.7299,0,1.5866,2.1077
0.0166,1.7236,0,1.5872,2.1062
0.02,1.7084,0,1.5877,2.1046
0.0177,1.7067,0,1.5881,2.103
0.0169,1.6995,0,1.5886,2.1015
0.0187,1.707,0,1.589,2.0999
0.0167,1.7225,0,1.5895,2.0984
0.0201,1.7341,0,1.5901,2.097
0.0175,1.7445,0,1.5907,2.0956
0.0158,1.748,0,1.5913,2.0943
0.02,1.7427,0,1.5919,2.0929
0.0177,1.7246,0,1.5925,2.0914
0.0156,1.7186,0,1.5929,2.09
0.02,1.71,0,1.5934,2.0885
0.0167,1.7137,0,1.5939,2.087
0.02,1.728,0,1.5944,2.0856
0.0167,1.762,0,1.5951,2.0843
0.0179,1.7539,0,1.5957,2.083
0.0189,1.7381,0,1.5962,2.0817
0.0167,1.7198,0,1.5967,2.0803
0.0166,1.6909,0,1.5971,2.0787
0.0205,1.678,0,1.5974,2.0772
0.0171,1.5271,0,1.592,2.075
0.0191,2.4673,1,1.5954,2.107
0.0167,2.9958,0,1.6009,2.1512
0.0166,2.1749,0,1.6032,2.1513
0.02,1.6634,0,1.5965,2.1493
0.0167,1.4701,0,1.5881,2.1467
0.0167,1.4382,0,1.5817,2.1439
0.02,1.47,0,1.5779,2.1413
0.0167,1.5033,0,1.5755,2.1388
0.02,1.5438,0,1.575,2.1364
0.0173,1.5768,0,1.575,2.1342
0.0161,1.6041,0,1.5751,2.1322
0.02,1.6263,0,1.5753,2.1302
0.0167,1.6728,0,1.5757,2.1284
0.0179,1.7176,0,1.5763,2.1268
0.0188,1.8009,0,1.5771,2.1255
0.0167,1.8678,0,1.5783,2.1245
0.02,1.8478,0,1.5793,2.1234
0.0166,1.7629,0,1.5801,2.122
0.0167,1.689,0,1.5805,2.1203
0.0202,1.648,0,1.5808,2.1184
0.0166,1.6442,0,1.581,2.1166
0.0166,1.6461,0,1.5813,2.1147
0.0209,1.6663,0,1.5816,2.113
0.0169,1.6926,0,1.582,2.1113
0.0189,1.7177,0,1.5826,2.1098
0.0166,1.7163,0,1.5831,2.1082
0.0167,1.7288,0,1.5837,2.1067
0.021,1.7167,0,1.5842,2.1052
0.0156,1.7159,0,1.5847,2.1037
0.0199,1.6961,0,1.5851,2.1021
0.0168,1.6993,0,1.5856,2.1005
